1954
1955
1956
1490
3336
2179
3335
2251
3154
3155
3158
3129
3164
3165
1958
908
1939
1940
1878
1576
2141
2142
2143
2144
2145
1513
1514
1515
1516
1517
1518
1519
1520
1521
1522
1523
1524
1525
1526
1527
1528
1529
1530
1531
1532
624
625
626
627
628
629
630
496
288
1199
286
1200
897
896
100
3596
2666
2924
872
873
3605
2069
2070
1393
2071
3851
704
643
3728
1091
2730
1442
1907
1908
1909
1910
1911
1912
1913
1914
3838
730
674
2817
3780
1537
1533
1534
1535
1536
2472
2423
2439
2440
2441
2431
532
533
534
535
536
2432
2430
3686
2655
295
3486
3487
3488
3489
3490
3491
3841
2548
3839
1953
1433
1434
1435
1436
1437
1438
2187
675
3691
313
93
3349
3350
3351
3352
3353
3354
3277
3274
3278
3275
816
817
818
819
820
821
822
823
824
945
946
947
948
949
950
951
952
953
954
955
836
837
838
839
840
841
842
843
844
956
957
3279
3280
3281
3282
3283
3284
3285
3286
3287
3276
1832
3308
3309
3171
3310
3311
2065
3290
3292
3293
3295
3296
3297
1339
3303
3305
2829
3757
1341
230
3167
2186
3001
3098
3002
3003
1972
1973
1267
1104
1105
1106
1107
1108
1109
1110
1111
1112
1113
1114
1115
1116
1117
1118
1119
1120
1121
1122
1123
1124
1125
3054
1802
1803
1807
1703
1833
1246
1247
3842
2619
1800
146
521
1034
560
561
562
563
564
1194
1197
1198
3707
2726
623
3849
3320
3824
86
877
1237
1023
3258
2659
3764
3765
3766
3767
3768
3769
2001
69
1090
1243
799
1847
118
2945
797
798
1439
325
248
2660
2661
2812
1779
1796
3051
2450
2449
2728
1895
1331
1340
1333
1607
1608
1223
1944
1816
1363
1238
1676
1378
3683
885
886
107
1038
1039
1822
2206
2073
3598
1491
1089
1242
1086
2220
2221
2222
2223
2224
2865
311
2382
2383
1494
1495
1496
1497
1499
1500
1501
1502
2412
2805
2806
47
2457
2458
2459
2460
1443
1073
3230
3231
3232
2370
3140
83
1025
1026
1027
1028
1264
2262
914
915
1075
1590
3234
3235
3236
1021
1022
1024
2497
2314
1549
348
349
350
3829
3809
3810
3121
1897
2243
3291
612
613
614
615
616
617
618
619
620
621
622
1817
641
1352
2995
3739
2135
3070
2755
65
779
780
781
782
783
784
408
409
410
411
412
290
287
1572
2967
1505
1506
1507
2413
2414
2415
2416
2417
2226
2227
2228
2229
2230
1503
1504
719
3331
1990
1991
1992
1989
393
1815
2561
371
2818
57
1538
1539
1540
1541
1542
1543
1544
1545
1546
1547
94
3212
3214
3216
3218
1176
1177
1562
1179
1180
1181
1182
1183
1184
1569
1186
1571
2343
1445
1190
935
936
937
1191
939
1192
1446
2346
1583
1585
2487
2488
1588
2026
2490
2408
2746
2747
2749
3201
2115
2028
2116
2117
2118
2410
3202
1249
1250
2407
1252
2025
1254
1255
744
745
1256
747
748
749
1258
751
752
753
754
1260
756
1261
1262
1263
2344
2683
762
763
764
2684
3187
3048
2377
2253
2131
2133
2134
335
344
3808
1813
1713
1162
1163
1164
1165
1166
1167
1694
1695
1696
1697
1698
1699
1227
484
285
1268
1270
993
994
995
996
997
998
999
1000
1001
1002
991
992
3534
3535
3536
3537
3538
3539
3429
3246
3347
3348
2088
2089
2090
2091
2092
2093
2094
2095
2733
2734
2735
2736
178
179
180
181
2288
2289
2290
2291
1977
1978
2925
82
916
1040
1498
2560
256
1289
1290
1291
1292
1293
1294
1295
1296
1297
1298
1299
1300
1218
1219
3826
1957
3375
3376
3377
3378
3379
3380
3381
3382
3383
3384
3115
1099
3238
3004
3005
3006
3716
1030
2479
91
2645
3302
511
2281
3434
3435
3436
3437
2922
2058
2285
2567
2802
2579
2589
2656
1862
1386
1387
1388
1849
1850
1851
1852
1853
1854
1855
1856
1858
1859
1861
193
194
195
196
197
2956
253
254
2293
1652
1674
1675
1678
1680
1681
2326
2327
2328
2329
2970
2971
2332
2333
2974
2975
2336
2337
2984
2985
2986
2987
1323
1324
1325
1326
1327
1328
1329
1330
2739
2740
2741
2107
2108
2109
184
185
2110
2751
188
189
2742
2752
2122
2123
198
199
200
201
204
205
2504
2662
1357
247
3725
3120
3823
1251
746
3190
1556
1178
3685
3307
3085
3313
3700
2368
3831
1668
3161
3611
3068
3614
3679
2077
2944
314
1925
2310
2311
2312
2313
3830
2862
2927
3595
1665
3321
1332
3848
1375
3763
128
11
12
13
14
15
16
17
785
19
20
21
22
23
24
25
26
27
28
789
790
791
1065
1066
1067
1068
1069
1070
1071
1072
599
600
601
602
603
604
605
606
1624
1625
1626
1627
1628
1629
1630
1631
1633
1634
1636
1637
1639
1641
1642
786
787
788
122
123
124
125
126
127
3845
246
2002
1345
1092
1093
1094
2900
2901
2360
3322
2455
2456
2453
2454
99
793
2828
2643
96
505
2618
3057
3599
969
970
971
972
973
974
975
976
977
978
979
980
981
982
983
984
985
986
987
988
989
990
2056
804
805
806
807
2057
3343
141
3621
3622
3623
3624
3625
3626
3627
3628
3629
3630
3631
3632
3633
3634
3635
3636
3637
3638
3640
3641
3642
3643
3644
3645
3646
3647
3648
3649
3650
3651
3652
3653
3654
3655
3656
3657
3658
3659
3660
3661
3662
3175
3176
3177
3178
3179
3180
3181
3182
3183
3184
3185
3186
2688
2689
2690
2691
2692
2693
2694
2695
2696
2697
2698
2699
2700
2701
2702
2703
2704
2705
2706
2707
2708
2709
2710
2711
2712
2713
2714
2715
2716
2717
2718
2719
3753
1276
1277
1449
1450
1451
1452
1453
1454
1455
3522
3523
3524
3525
3526
3527
66
67
68
48
49
50
3836
3761
3438
3439
3440
3441
3442
3443
3260
1208
2910
2072
3597
3127
2463
2464
2461
2462
3008
1712
1797
2923
1801
3146
3752
2932
307
3071
2172
2173
190
2757
2148
2149
917
1798
1709
1708
1866
1867
1868
1869
1870
1871
1872
1873
1874
1875
1876
1877
448
449
450
451
452
446
447
1321
3299
182
2821
1153
1154
1155
1156
1157
1158
1159
1160
1161
1168
1169
1170
1171
1172
1173
1688
1689
1690
1691
1692
1693
2762
2763
2764
2765
2766
2767
1150
1151
1152
266
913
2162
3787
1185
1575
1257
755
3206
544
2824
2825
3049
3050
3156
2822
2823
1236
1368
1096
90
6
773
774
775
776
777
778
3723
1573
1029
1592
1552
1553
1559
1591
3712
1793
243
2568
2578
2803
2518
2526
2657
1711
2960
794
795
482
470
1882
5
3370
3371
3372
3373
3374
3365
3366
3367
3368
3369
425
426
427
428
429
430
431
416
417
413
414
415
1653
1950
1945
1946
1103
2830
3696
3426
2907
297
377
727
876
880
1138
1139
1140
1141
1142
1143
1144
1145
1146
1147
3314
3315
3317
2501
2315
2792
2140
88
2492
2493
3719
2084
2505
2641
2516
1751
1752
1753
1754
1755
1756
1758
1759
1760
3247
884
1700
3709
1663
1664
97
360
363
2371
1235
3043
2498
1347
2475
2476
2477
1717
3273
888
1234
3777
3204
3840
3243
2978
2979
2607
2255
2609
2608
2610
2611
2840
2524
1863
1848
1857
1860
3720
2085
632
633
634
631
3821
3822
3504
3505
3506
3507
3508
3509
3687
495
2897
2793
368
228
2395
367
3118
3123
3125
3126
2099
3323
1421
1422
1423
1424
1425
1426
3013
3014
3015
3016
3017
3018
3019
3020
3021
3022
3023
3024
3025
3026
3027
3028
3029
3030
3031
3032
3033
3034
3035
3036
3037
3038
3039
3040
2003
2004
2005
2006
2007
2008
2009
2010
2011
345
346
347
2882
3157
3325
399
3211
2309
1561
2341
1568
1570
1444
934
1582
1584
2486
2745
1587
2112
2113
2405
2023
1009
1010
2682
1014
654
1560
58
95
3834
3197
232
233
234
231
418
419
420
421
422
423
424
3257
2217
3255
3256
2605
2367
2139
2273
2274
2275
2276
943
3119
3240
1248
2926
3566
3567
3568
3569
3105
3106
3107
3108
3109
3110
3111
3112
3130
3131
3132
3133
3134
3135
3136
3137
3555
3556
3557
3558
3559
3560
3561
3562
46
1656
2342
513
2024
515
2406
517
488
494
500
503
2114
644
645
646
647
648
649
650
651
665
666
667
668
669
670
671
672
731
732
733
734
735
736
932
1149
2511
2512
439
440
441
442
443
444
445
1644
1645
1646
1647
1648
1649
1650
1097
1079
2169
1555
2893
720
3612
3044
3045
3750
1273
3748
1805
3827
398
1174
333
3091
1716
1677
2219
3584
59
60
2097
3268
3271
3052
357
358
359
2121
3213
2347
3215
2029
1448
3217
940
304
2491
2750
2686
3203
723
724
2234
2732
1383
3086
2994
2931
3395
3721
1757
298
889
892
893
887
743
3594
2068
2720
2338
2349
2482
2879
2761
2378
2896
2158
2159
3585
3586
3587
3588
3589
3590
3591
3593
3729
3063
3060
3795
1927
1968
3080
2891
10
81
2235
2236
2813
2942
766
3205
3775
930
490
702
518
1970
1971
796
3419
3420
3421
3422
3610
3423
3424
2466
2467
3425
3250
3251
3172
3252
2873
2874
825
826
827
828
829
830
831
832
833
834
835
3415
3416
848
849
337
338
850
851
852
853
854
855
856
857
858
859
860
861
862
863
864
865
866
867
868
869
870
871
3417
3418
244
1224
2297
2298
2299
2300
1487
3758
920
1373
2152
1928
2164
2165
2166
1943
2167
1947
1948
1949
1951
1952
3117
2837
2838
2620
890
891
2054
2055
2569
2570
2571
2059
2060
2061
2572
2573
522
523
524
2574
526
2575
2577
2580
2581
2582
2583
2584
2585
2587
2588
2593
2594
2595
2597
2598
2599
2600
2601
35
2602
2612
2613
2614
2622
2623
2624
2625
2626
2627
2628
2629
2630
2631
2632
2633
2634
2635
2565
2640
2566
2644
2646
2647
2648
2649
2650
2651
2652
2674
2675
114
115
2687
2188
2189
136
2190
2191
2192
2193
2194
2195
143
2196
2198
2199
2201
2200
2203
2202
2205
2210
2225
2248
2249
2259
721
2796
2797
2798
2799
2800
2801
2833
2839
2352
812
2353
2354
2355
2356
2358
2880
2881
1342
2885
1348
1349
1350
2892
2381
1353
1354
1355
1356
845
1358
1359
1360
2898
2544
1885
2411
1385
1389
2419
2545
1918
1919
921
941
2507
2509
2510
2515
2517
2519
2520
2521
2522
2523
2525
2527
2528
2529
2530
2531
2019
2020
2021
2532
2533
2534
2535
2536
2537
2538
2539
2540
2541
2542
2033
2034
2035
2036
2037
2038
2039
2040
2041
2042
2043
2044
2045
2046
2047
2048
2049
2564
2052
2053
738
739
740
2474
792
3819
3816
3817
3818
801
802
803
742
808
809
810
811
800
473
640
1035
1643
138
3228
3229
2369
2387
1391
2908
2363
1659
3832
2546
678
679
680
681
682
683
684
685
686
687
688
689
690
691
692
693
694
695
696
697
698
699
3289
607
608
609
610
611
1233
1231
3751
2731
2988
1351
7
2030
2031
2125
2126
300
2127
2930
2146
2147
1985
1986
1987
1988
2064
2841
2842
2843
2844
2845
2846
2847
2848
2849
2850
2851
2852
2853
2854
2855
2856
2857
2860
2861
2795
1384
2418
2177
2178
105
262
263
264
265
2894
267
2876
2915
2917
1279
2889
2388
1392
2012
2914
3785
40
41
42
3692
1187
1577
757
3208
2132
1286
1287
1288
3428
655
656
657
658
659
660
661
662
663
664
1898
1319
1488
1722
1723
1724
3794
3803
3800
3801
3802
3680
3681
1372
142
1272
2928
2929
1706
1508
3162
3163
1915
1883
1916
3142
769
770
771
772
767
768
1670
1683
1685
1686
1687
547
36
37
38
548
549
550
551
552
553
554
555
556
557
558
559
3663
3664
3665
3666
3667
3668
3669
3670
3671
3672
3673
3674
3675
3676
3677
3173
109
375
1993
1509
1510
1511
1512
1994
1974
1975
1981
1982
1343
1344
2820
3772
1476
1477
1217
1101
3714
129
4
257
258
259
260
261
2807
2294
2231
1920
251
252
255
931
3092
2904
1413
1414
1415
1416
1417
1418
3241
3306
1834
1935
1936
1937
1578
2304
1012
1013
1548
728
1366
2819
2150
2151
2760
3755
3406
2990
2933
1467
3141
2124
3738
1082
1083
725
726
2244
2859
1427
1428
1429
1430
1431
1432
528
2494
1241
1084
1016
507
3825
3116
3705
918
3737
139
1720
2245
1361
1489
847
468
3094
635
636
637
638
1901
1902
1903
1904
1905
1906
3740
3741
3742
3743
3744
3745
3746
3747
92
132
1835
133
134
135
1836
1837
1838
1839
1840
1841
1842
1843
1844
1845
3270
249
3717
3619
43
1550
1244
1551
1589
1558
1020
2247
245
3820
299
1281
1282
1280
3833
2636
2637
2638
2639
2256
2586
506
1482
1483
56
54
55
3783
2677
1960
2563
2787
2385
1390
2902
2679
2361
1657
1658
2887
1823
1824
1825
1826
761
1581
3199
1207
2318
2319
1374
565
566
567
568
569
2888
2386
2903
2362
1660
1474
1475
1486
2936
2295
1983
1984
1979
1980
1806
1274
2271
2794
3147
2379
8
2993
1484
2938
308
3776
2174
2175
3075
3450
3451
3452
3453
3454
3455
2912
2961
497
177
2252
106
3724
291
292
294
2895
296
2737
2096
2867
2066
2067
302
2878
183
1886
3138
3563
2080
2081
2082
481
486
395
396
397
370
3792
2673
2621
3601
1672
2667
2668
2669
2478
1129
73
1130
2481
2323
1041
2263
1175
3264
1594
3300
3168
1684
2214
2215
3047
3113
3114
1266
1240
1206
1088
3122
1574
1609
1610
1611
1612
1613
1614
1615
3791
3603
3604
3398
3399
1705
1804
919
1707
1201
1036
1037
1313
1314
1315
1316
1884
1309
1310
1311
1312
2246
130
579
580
581
578
582
583
1810
460
461
462
463
464
465
466
2119
2120
2345
2409
2027
1447
3697
3698
938
3699
2489
2748
2685
3689
3084
2870
87
2503
1595
2204
961
962
909
910
1202
1203
2428
2429
1085
960
320
321
322
324
326
2063
3718
301
2871
2872
339
2301
2302
315
2320
2321
2322
3575
3576
1275
3242
1148
3682
898
899
900
901
902
903
3341
384
385
386
387
388
389
390
391
392
1334
1335
1336
1337
1338
2266
2267
2268
2269
2270
378
379
380
381
382
383
814
77
3152
3160
3613
70
1081
3786
1205
1080
3706
3207
354
355
356
316
318
9
3090
191
2250
3151
72
3541
3414
3542
3543
3544
3545
3546
3547
3548
3549
3550
3551
3552
3553
3580
3581
2941
1917
3079
3600
1222
512
453
454
455
456
457
458
459
1880
1881
1216
1401
1402
1403
1404
1405
1406
1407
1493
2213
2433
2434
2435
2436
2437
2438
3702
2480
1204
1019
1018
1003
1004
1959
2468
2911
510
3844
80
78
79
39
878
369
1721
268
269
270
271
272
273
274
2905
1095
3736
309
310
750
1567
3058
2351
1485
2939
3779
2176
3076
3294
3346
3345
174
3344
2962
2963
2964
2965
2966
2877
1278
2918
3385
3386
3387
3388
3389
3390
3391
3392
3393
3394
577
239
240
241
530
529
469
879
1379
1380
1381
1382
923
924
925
926
927
928
498
2264
2265
2218
283
3690
235
236
237
2678
3710
1819
2
3730
537
538
539
540
541
542
543
3
3762
1367
2483
33
117
2452
3708
176
3731
477
1365
89
2869
3089
2237
3209
959
3701
1671
3340
0
2211
2212
2658
3248
1818
3756
1470
372
3843
2890
3082
104
2864
2260
3159
3579
3067
3069
343
1469
394
3081
3083
2868
2996
334
85
2814
765
1929
1930
1931
2421
2422
2424
2425
2427
1369
2663
1301
1302
1303
1304
1305
1306
1307
1308
61
62
2547
3688
1230
1232
3695
2376
3726
3174
597
3430
374
1077
2022
2404
514
516
933
487
489
492
493
499
501
502
2111
2340
2168
3847
3715
2473
1364
2664
2665
3793
305
306
2130
2976
2977
3316
2324
2470
3153
3139
2138
2858
2559
3781
3088
2258
3066
3582
2364
2365
2238
3432
1100
1616
1617
1618
1619
1620
1621
1622
1623
701
2087
1666
1322
2997
312
2277
2278
2279
2280
2282
2283
2284
2286
2287
2943
1921
1922
1923
3722
881
3000
3095
2998
2999
3124
3245
2804
144
1394
2946
2947
2948
2949
2182
2183
3759
3760
2180
3148
3149
3150
3540
1492
2153
2154
2155
2156
2157
2934
2935
2940
3072
3073
3074
3077
3078
2181
18
3007
3009
3010
3012
2653
1969
366
2816
2496
3196
1564
1253
3259
3262
3263
3272
2471
2240
3059
958
2831
3607
3608
2451
1996
2913
1346
2603
2604
2606
1565
3198
1220
1221
2445
2446
1811
1812
29
30
432
433
434
435
436
437
438
2508
1456
1457
1458
1459
1460
1461
1462
1463
2396
2398
2399
2400
2401
2402
2403
2397
3097
2185
281
282
968
3811
1821
1820
1265
1239
1087
376
373
2562
98
3554
2557
3128
400
1998
1999
2000
1997
1563
1131
1132
1133
1134
1135
1136
1137
2968
2969
2980
2981
504
3064
3732
3332
2972
2973
2982
2983
3468
3469
3470
3471
3472
3473
75
1554
3188
1714
3011
467
1409
1410
1411
1412
1408
1098
3237
3602
3338
3339
3326
3327
3328
2465
3334
3337
131
2380
520
2032
2500
592
593
590
591
121
3396
3397
3144
2272
1376
2552
2554
2555
1900
45
3312
101
2863
2596
2576
2642
525
2325
2197
2875
2590
2083
1601
1602
1603
1604
3219
3220
3221
3222
3223
3224
3225
3226
3227
1596
1597
1598
1599
1600
480
289
1228
1229
2826
472
1042
1605
1606
491
44
3093
71
3456
3457
3458
3459
3460
3461
1209
3474
3475
3476
3477
3478
3479
3329
284
3444
3445
3446
3447
3448
