1359
1713
3577
3648
2935
1415
1115
1588
1845
983
1776
2131
3826
2931
3620
2922
2626
3740
528
1378
899
954
2063
3151
1271
1573
1024
1472
2143
2714
378
3586
1304
1327
3040
530
3387
248
1158
185
1678
2402
3847
2760
675
1717
2572
452
491
1702
661
3468
45
3599
482
3440
1959
1356
3186
1647
826
3838
333
2477
1088
1720
1924
2405
3184
2514
398
2204
615
1494
2963
928
752
3286
2910
3018
88
1913
3284
2593
1128
3188
3521
925
3061
1940
3331
1116
499
311
558
3581
2277
418
533
654
1549
3043
567
884
1360
3300
1000
2604
1667
972
2124
2519
3058
634
33
521
1603
1333
3690
2168
2346
869
1986
2887
2117
575
2764
3369
706
1342
3278
1584
481
1912
2064
759
3025
214
3786
2540
721
1272
2415
868
2284
295
3638
1014
2671
2303
1428
1731
543
666
1337
1492
2132
1352
2961
39
3488
2749
541
566
142
1069
841
1053
2107
572
663
1622
2215
1983
2899
2412
1654
3047
797
2618
3059
2642
117
891
906
3109
3732
3439
2704
1433
3210
1348
3157
3603
3297
2383
3269
1536
3725
1715
224
3129
1531
596
1764
2627
2525
587
2611
918
1078
3245
170
3546
3019
1918
3041
3073
1
1998
2733
2919
2743
34
2886
1950
777
3416
2307
298
2180
2455
192
2987
253
3670
3490
3187
1247
1085
1175
3736
1270
2407
3671
1033
2343
2446
526
2164
3649
3071
978
2487
3171
2781
2069
3390
1276
1043
2093
546
3496
688
2884
534
489
1099
1386
2735
3828
3352
1377
2639
2679
1421
467
1707
1129
3814
2414
3644
2055
2417
453
2384
1772
1130
485
517
148
134
1892
1102
1006
1648
514
501
1119
2250
2431
3256
1649
3467
1149
3014
3842
1497
1283
3823
3700
1117
2321
999
502
780
2376
347
1277
3525
3422
635
3827
2991
196
457
892
1071
189
3761
118
728
465
381
2326
690
1835
227
2365
569
2796
1699
2441
1733
939
1110
2918
3455
1516
2697
3743
2528
3701
3829
1429
1186
1083
2839
2897
2106
1381
1935
226
1884
3326
3545
3619
3769
408
682
2171
3748
182
2256
3692
2721
1675
1871
3329
3031
229
3679
22
1022
919
302
276
2047
3574
940
2579
638
304
2549
2865
3563
3413
3759
2599
545
2967
2513
1368
685
1775
410
3393
3240
2479
3641
2443
712
3098
520
3092
326
963
776
3768
2261
3135
124
1475
2632
346
202
1852
2684
2271
2308
941
480
2647
3090
3726
1611
2710
2713
2313
2294
2140
2824
1820
581
2045
1311
463
818
92
3260
897
1476
2379
3381
3414
3703
30
582
1953
3140
3332
2108
2491
85
1838
3493
2000
3544
496
2712
1238
2300
2354
3602
352
1437
3742
1906
308
562
49
2076
3714
3067
2623
3036
599
3237
3770
2114
1963
538
1257
2736
3165
3552
2172
2102
837
1832
436
2450
296
500
2202
2954
2427
3775
621
962
952
1048
2709
1881
1798
443
2330
3695
3141
3654
3555
2573
2620
3412
1726
2745
306
10
14
402
668
4
3557
2031
3664
598
3804
3365
1729
473
3560
1458
1705
2254
3517
1560
945
2110
2217
2561
915
749
290
3835
2475
3397
3675
1898
990
1490
3495
66
188
219
380
218
3529
800
252
2118
1574
1488
472
15
2668
2058
3709
911
1466
3774
3747
3359
234
1369
36
3152
1181
1161
2396
992
3277
3576
3780
1325
1754
2332
177
1237
64
1289
2879
3006
3030
1477
399
2501
1016
1314
1367
1171
2741
1933
3264
1908
1842
1267
2848
2318
3547
3076
704
191
714
2260
2100
1803
3470
383
3053
565
1451
2437
3426
896
3295
3562
3590
2943
263
1719
3046
71
3049
2876
2094
169
1594
1121
3516
648
769
956
1162
2198
2773
159
3713
717
1680
553
3398
2018
1479
2677
1701
2016
1512
316
1329
3276
3432
3515
643
299
1074
1700
156
195
616
1010
2891
5
1045
3218
3178
2664
1151
2788
2769
2138
369
104
842
3015
1263
966
1813
1268
2134
3056
3094
883
736
3074
3677
2209
2436
1985
1996
1742
2237
3505
1319
361
3622
1527
1698
3273
3399
1613
1060
519
872
3180
351
3103
3282
2544
2537
3831
2592
2813
57
1300
3777
686
677
2483
1556
726
1096
2010
2023
3221
3458
211
2770
1066
2789
2959
3424
2575
2206
322
3239
1740
1249
2454
1607
405
3303
1221
2751
2011
937
3810
982
1949
1364
1875
338
483
2005
1738
720
2019
138
50
305
1978
1044
3050
3500
3579
3569
980
1120
1561
3202
376
3419
461
1604
3143
1079
2236
2857
2190
794
2556
548
2500
245
628
936
330
1461
2628
2934
17
1286
2238
3132
3843
2369
2037
1674
3540
710
3167
1291
2248
2803
2820
3813
493
2240
1743
3497
1038
1903
289
683
2930
2929
3651
2563
1365
570
692
2870
175
2361
827
3226
1500
2366
2872
3580
2800
2772
3778
3404
576
1398
678
924
3433
1741
1474
1851
23
674
3457
2754
1140
1003
1753
3479
1301
1411
1780
427
765
2702
1951
3803
240
1070
3280
217
670
2494
1363
1581
2319
900
2920
3146
2693
729
984
1967
1867
1989
1447
3104
2471
1887
901
259
862
641
1945
2194
880
1427
1591
3385
3096
1269
559
2489
3042
3296
385
2755
3118
3080
2480
3244
701
1233
2716
2401
3787
2216
1281
3137
1942
1799
1331
959
1320
1587
422
2992
3227
2913
242
1602
3033
2
2953
2314
70
1389
1425
1052
1582
1358
527
795
2637
179
2635
2073
1284
1937
3758
3287
109
687
2993
1432
1545
3645
154
488
317
3673
1751
2538
1204
1495
2229
2281
3717
589
1789
3756
1094
578
3646
1661
3836
1243
3366
2053
1862
2385
2157
3216
2466
1958
2581
2460
3029
2246
536
1858
1505
3633
1982
2247
531
1988
867
3566
1520
789
3130
2241
881
1818
2338
1423
1830
2245
3840
3235
1657
3705
2129
76
2039
3653
3662
1123
1226
3145
3551
9
1141
618
3403
3128
69
29
3698
1836
2293
2072
2081
1095
1282
2798
1975
1152
1468
3206
875
1293
3624
3364
1759
2439
1504
2463
3148
349
1995
547
1372
228
37
1344
3785
3834
2595
235
2866
3553
137
2410
3298
353
446
2112
2832
833
857
1550
1374
2951
2607
1015
3486
1616
1388
3583
1288
3101
3215
2440
3199
2728
3350
53
1708
3456
2853
792
2559
3354
3255
3484
2661
1526
149
1255
3345
2445
332
853
1037
503
320
2508
3757
1004
3391
3704
3163
601
2810
98
2349
40
1548
2116
113
935
454
1824
723
1109
3028
411
1861
1668
122
2591
3112
3727
1274
396
3537
1101
1318
2622
516
702
2078
406
3535
652
2219
2855
1111
3817
2748
3179
2388
2161
529
2902
3839
2101
2230
3808
2186
1502
1185
2999
2187
711
1572
2375
2462
564
1873
44
1224
1465
1285
3536
807
2050
3418
1769
3591
1138
2850
425
1685
3534
3356
3680
1350
600
3011
3159
1039
784
3512
1240
779
985
2430
3194
746
2555
1777
2988
1172
1757
848
3509
1391
1312
2025
82
747
2974
2357
996
2146
141
863
1773
1380
1796
507
2863
3057
2969
1197
1794
121
2061
1491
2178
3328
3144
206
1397
2998
3681
3593
1496
3168
269
3744
2674
851
135
2663
850
821
887
3375
414
1841
1328
1964
744
476
1651
456
2336
763
989
3193
3707
271
1893
1463
1997
1816
3523
1829
672
2817
655
1878
2574
1387
2060
700
3519
2856
590
2979
1656
314
119
1779
1449
1811
3321
1703
2109
1198
3584
943
3480
2844
1183
832
215
3630
392
27
1413
753
478
2737
3708
2148
910
2893
2181
619
2582
2351
1371
3589
132
283
2195
563
1860
922
3026
970
1213
394
914
1551
1424
3655
2682
2517
724
3682
3070
3386
3766
1028
597
1339
3818
1062
998
3106
3045
1747
2459
1904
653
1961
3739
2080
3204
1762
3661
667
3789
879
241
1256
340
2054
2464
2978
1671
3459
2472
3702
1956
2520
1450
518
3772
2167
2006
767
2996
1169
474
3447
907
3608
3812
1452
839
268
1050
2584
3294
3631
107
3225
2269
1082
1920
732
2662
3434
238
2084
2278
2362
3532
1744
3373
1634
2137
1900
3598
1159
2659
1541
913
204
190
487
2033
438
244
609
2994
3299
2881
1184
2149
3172
2701
1565
108
1355
1080
1506
2003
1788
426
3656
3481
2290
2416
944
3087
1297
2567
1697
813
459
1785
934
303
3790
1139
676
2612
144
1626
3108
3501
2784
41
3668
1265
3539
2316
3052
1891
2200
1894
2706
2529
2730
1761
390
1568
1059
187
3333
251
2482
357
278
3628
1464
1922
232
610
2933
1534
2364
328
938
782
2211
68
994
1191
3830
1225
1514
3578
2546
2507
1957
2066
2880
3721
2210
2815
636
1524
785
522
3400
2276
2139
3749
1737
1084
1018
1404
2785
2793
1375
1245
2970
145
8
393
2590
2968
162
2854
3368
1107
1445
2984
359
1420
486
1188
13
1232
2166
2196
379
1934
294
2329
758
1064
1696
1856
3142
1056
3272
345
967
2926
1928
59
2767
2367
964
3378
1075
1659
2940
2703
3311
3815
3436
2726
440
3572
477
3327
3477
1118
716
2071
1809
2841
3374
6
1530
1373
125
2068
3699
708
1929
3304
391
3238
220
986
2413
1239
1042
58
568
2363
814
2962
2434
703
3285
261
2619
3322
3008
1294
1837
1174
3263
1137
1627
718
1026
384
1555
588
1765
1478
3469
3696
3491
1980
1790
2845
856
1722
2608
3734
3750
3454
3611
1057
820
3223
2239
2547
2335
455
52
3012
20
1419
415
1718
194
1214
2085
1087
3487
1218
1663
264
2301
2258
1455
1955
3694
1636
2207
2268
2976
318
2625
579
629
2044
2404
48
3612
804
3302
223
585
3212
3038
360
1236
1652
3312
830
2722
1901
689
2900
1600
965
468
1316
2170
1148
1691
286
1223
2577
2601
1483
3283
3252
1231
97
1100
72
3330
3799
796
1767
1923
285
557
2380
3659
1196
3796
315
1605
1211
927
133
3379
2782
2587
3086
602
3288
1104
1400
203
1593
3587
950
1768
2374
997
2725
3807
1459
11
1653
2040
344
2650
3730
3642
442
3452
3819
157
2492
1641
3392
505
1246
2022
2418
18
1770
2923
200
2221
3650
1453
2939
646
2091
1522
773
47
2665
2705
2371
1965
2792
1200
2896
1486
1431
2448
1554
1778
2299
1002
2324
898
2805
1063
657
1642
2804
3746
2585
3339
3243
1253
3169
1011
3822
1628
413
2613
2576
254
3617
2977
1261
684
300
128
3548
1055
620
2657
1258
1106
847
2594
2189
2325
3421
1335
386
651
3528
3344
3334
3825
806
2305
366
2732
2956
2849
2707
1302
3753
1968
2864
2680
1412
3604
3741
2541
1264
1971
458
1662
2836
1212
1013
61
1241
3363
3531
2983
1031
3430
2631
87
3382
1863
1570
1192
1513
1714
272
354
1019
1621
2532
3623
1544
3388
877
444
161
2493
249
3335
981
885
2222
2469
2852
173
3625
2264
1143
823
2914
665
3592
42
3318
2530
3198
158
139
3062
574
3832
1619
3693
2909
3627
774
3377
2651
3267
342
793
1001
1843
2568
441
790
1303
2882
3201
3402
535
2681
917
1756
1383
2898
43
1771
3268
3102
1508
80
1954
270
2867
2356
511
475
532
3507
1324
894
2762
2457
267
1510
233
2986
2825
2928
3337
287
1092
734
3153
512
1795
811
3197
2776
1684
816
829
1262
1578
2597
2255
279
3409
745
1278
1692
250
2218
2498
2421
2516
2636
2306
1859
1766
1046
2154
3317
2473
2199
2036
31
3697
865
3779
2337
2070
2504
3754
843
2948
3044
2534
2936
2777
3724
3082
3666
2715
1394
1823
309
1833
2373
3001
490
1987
819
2130
1784
3024
3676
2787
1540
2121
1763
2843
3482
2885
1539
1260
1166
893
971
2232
3077
3016
1189
2831
2249
3609
2497
77
1418
262
198
722
3192
2526
3407
2903
431
3684
2818
3442
3420
2917
106
1227
1040
513
1730
2433
1683
3503
2333
633
2861
1970
1340
2727
3134
301
3234
1822
2488
3261
310
1323
2485
3841
1589
1758
1097
905
642
3182
2941
2869
3100
593
3737
260
3691
2827
3232
2840
2768
2184
3794
1571
3678
1846
3265
2007
3851
987
2088
2274
101
2673
2049
1487
3189
947
1907
1259
1688
2533
1456
506
1454
2552
1206
2811
2115
1176
2851
3427
3088
2467
2687
147
3248
3848
2079
1791
3530
3095
2560
1146
2580
312
2570
3220
1193
2353
3685
3315
2020
3247
152
2915
1612
2287
3492
1644
2096
3348
2059
55
2283
1682
988
1068
2779
3660
3035
1336
1670
255
1280
2153
1806
2609
916
3565
2645
335
551
2120
1721
1948
2291
2035
719
2387
140
1886
1098
1030
3542
583
1847
3760
931
2980
3601
1629
102
1872
2225
1890
3120
3257
3745
2150
208
1194
725
3585
19
3720
54
1865
1089
3158
3438
3079
1538
2799
2644
751
2312
1127
2136
2176
2989
2372
2043
3610
1569
2522
2322
3767
2511
2452
3428
1147
3004
2422
38
3764
2630
1077
3483
3319
339
1529
2566
2213
293
1681
3251
3845
2244
979
2652
3341
2174
1666
2952
2348
812
479
2624
975
1296
727
1422
3000
3474
2759
1009
3357
1229
2558
434
3349
2273
3451
2119
2285
3139
561
2352
205
1687
3110
1517
2633
658
3618
2297
2808
89
644
761
1051
2231
824
1235
1899
3533
1521
3262
3009
143
786
2056
1870
2162
3669
2780
171
412
416
2391
1295
2699
3405
364
2696
741
73
3021
3084
1266
2214
1994
2648
1493
2208
1217
2883
2105
3558
2004
2512
631
2955
3616
2812
1081
1406
632
1457
2041
2378
1857
3504
1807
2235
178
498
484
3051
2252
2495
3711
878
1167
1694
1341
3776
3207
760
2224
1598
1357
3305
1599
993
2099
2571
3360
1849
2809
3771
319
184
2689
3715
2634
3522
2034
840
3222
539
1155
802
2251
2490
1136
210
65
864
2830
3687
3752
1133
1027
2334
341
876
1507
372
2265
890
3323
2904
2877
1326
2408
3316
96
2536
2603
3635
129
2125
1639
1991
3729
2550
3063
3211
370
1793
2122
1825
995
882
738
231
377
3126
2894
432
1362
2778
1379
1592
1144
172
1882
815
2950
2272
949
16
2032
2026
2921
367
1407
3449
3588
2542
2670
3258
1854
3081
2947
1941
2823
1625
3069
542
2461
1460
1673
1909
552
362
549
2829
81
1735
3605
355
2089
2456
554
693
2874
649
3125
3191
420
3738
1230
1090
2816
2949
2311
961
1165
371
3411
2660
1576
1485
3448
1864
258
770
2067
2024
3161
114
1821
1595
958
2295
679
2331
56
3686
435
1058
155
2742
1017
60
2083
783
35
3236
1655
1061
358
1124
3782
524
1201
3002
265
1586
1669
1974
1519
3372
3022
2744
2521
336
1157
888
494
580
3550
2738
2925
2486
1190
3149
212
2927
1065
75
3089
1313
1032
3355
247
1596
3596
1501
1925
186
2711
2021
2062
2658
1623
2720
1076
2676
3066
1786
2429
1660
32
3293
1125
3437
445
3306
464
3446
3805
2185
1686
2320
1814
1952
2629
2588
243
1709
401
2038
1990
3793
450
1228
3017
3085
2339
471
2802
3498
3325
1679
2638
3048
1792
1839
611
1408
2481
3733
3802
3343
2128
3156
2695
2960
2685
2327
1219
1781
1499
3353
3384
2103
1734
540
110
1633
510
1614
2001
3078
2051
2098
2972
1724
1608
3023
78
2734
2323
2002
2675
313
2837
1308
912
697
2392
466
1020
363
1848
3594
1345
1361
3270
2075
3173
3773
1525
1035
83
79
662
1440
3751
920
1441
3113
2937
2723
2259
2382
809
1511
2990
2583
656
1927
1443
3640
859
1808
2763
3361
2801
845
834
1615
213
2527
3383
131
439
3281
2428
2531
1610
854
448
3595
3376
3518
3117
1732
103
3246
523
1103
1826
1416
165
3292
908
2669
2403
3224
2425
1866
3203
2562
1746
2506
395
625
695
948
762
2747
2317
1384
2234
3614
1402
645
3567
2944
3762
1888
772
3464
51
2605
2548
2656
3013
1376
1122
3508
1036
2458
2292
2151
3367
111
183
2524
613
3185
3559
1711
1558
3716
1716
1179
2135
2539
397
1292
1631
3313
2981
1748
2142
2092
2814
2873
571
3849
3394
2958
2315
3494
1535
3473
3837
1880
356
608
3336
239
3731
3242
2173
2895
1819
2807
374
3626
1943
1322
1126
3417
1528
2846
3111
730
2465
2502
1392
3445
1409
3506
2270
382
3324
2596
1503
3055
3389
1321
3253
1234
2242
2957
681
3290
1275
2797
2370
123
2641
660
1801
2586
2309
2717
1966
3800
230
902
3083
766
3127
3147
2435
3107
1750
788
2155
3401
3037
421
3166
3791
1879
2621
3527
2144
799
1876
2013
2578
626
495
3164
1617
1787
2212
1896
791
2564
3340
2420
3606
2282
3105
417
743
2133
1215
492
1915
1170
2615
1343
825
3183
3338
1482
3652
3643
3485
3208
1025
2468
592
3271
3582
3833
2515
1802
3190
127
3266
3510
2444
403
150
3712
2400
1438
1630
3538
2449
62
2342
2262
2551
2406
95
960
2197
3027
1577
3039
2159
236
222
3607
2399
1815
120
1690
2643
3850
2386
2646
193
2289
181
3460
389
969
3250
1546
669
3629
3706
1366
1395
331
614
1287
266
1938
2205
2600
1812
225
105
2419
1509
3783
630
2739
2074
871
2296
2104
1187
2971
2496
1897
1760
1932
707
3114
3254
2878
2355
2226
1693
284
1664
921
1434
3307
3119
735
1817
2398
2360
3809
923
1403
3615
167
2476
2279
3573
12
1547
617
1093
90
612
3489
1405
858
3453
3549
778
1643
1992
2358
3395
3647
28
1523
1067
1917
2545
74
515
1310
2616
2233
2008
2163
1585
1518
116
2347
1073
2698
1804
2828
3499
3214
1601
622
3471
409
2691
1624
115
