8156
8988
11253
744
8372
10452
3669
4127
11287
11420
5411
6208
1512
6867
10928
9632
11774
4740
5553
10666
9199
9553
19
6167
3547
8585
2932
8951
8765
4442
2360
613
5221
8836
1408
3971
10292
7281
1010
5641
11513
10547
9103
10795
5146
8500
10536
850
3372
5379
11741
6931
1418
3745
10829
1432
1022
647
5731
1142
6322
5890
5292
9368
2319
1747
533
3615
5932
11271
7856
3499
8559
970
10379
3994
4580
5397
7185
8852
6601
8545
149
1650
6412
8370
6407
1275
11485
4901
396
6847
3857
8462
7808
2288
8327
6282
4747
7562
3852
3827
6438
6271
4083
9642
1323
4872
2231
11136
10107
3219
2751
5363
5322
4303
9350
3116
8814
8451
7132
9334
8104
4110
6713
9402
7282
3448
7962
3508
6637
6177
8351
9536
9336
7216
5652
6849
8879
4828
7998
7053
5727
2174
3027
8343
10018
9257
7039
3919
101
8267
8719
900
3781
5860
9597
7148
8909
4299
5756
862
3131
99
6106
385
429
1643
2714
9997
5769
7383
6504
9022
6398
7816
8695
11565
4513
11471
1662
6690
10859
6562
1670
483
11517
119
10549
6884
10270
5211
11291
5414
5508
7191
10080
7781
5202
10356
9899
10798
9143
3487
9423
5270
6459
4782
5963
914
1068
8805
8140
2216
7499
6545
3111
7750
8918
2412
4845
11701
7582
4046
4786
8715
1355
9941
9675
7887
7853
3780
11650
461
1470
2109
3425
2406
8606
3037
4192
6435
3065
304
7696
2184
7615
7733
8568
200
10103
3021
4850
379
5556
11699
2859
6634
9247
10543
2252
5638
4447
47
10850
6880
6120
5632
11084
1671
624
2609
2020
11538
9711
9387
9197
11766
245
5938
5204
7465
1720
2088
3995
5130
8064
4617
9947
6346
2102
3550
958
4771
10237
3784
11669
2142
10953
518
9191
6794
3526
10544
3379
5180
5061
9623
6333
3234
6425
8486
5580
6341
9102
11733
1277
3837
1634
2956
1320
1433
9747
8124
9520
4381
1496
2453
5076
10672
468
14
5467
8000
7722
9639
2009
10841
3000
4639
487
1479
5015
9779
2754
11605
1219
8382
1383
8799
1744
5489
1953
6086
1166
9124
6543
8530
8379
2876
8485
7139
7601
8550
3148
8678
2245
9187
5426
3562
5361
11622
4060
7438
50
8271
10165
9239
7963
9749
95
6554
2417
8968
3297
10354
4700
3132
9884
700
1053
2742
3858
7189
218
214
4401
2189
7607
10408
1617
11101
2688
6193
3352
7070
8727
2564
932
1178
9490
9565
1121
9952
5303
8023
6821
10649
967
573
10394
11072
357
3207
3328
651
6227
6440
856
11759
5961
9251
7254
6357
8052
10131
10874
2732
9449
3698
4610
10754
3130
7271
11775
3546
1002
6621
7174
554
2664
8934
4995
7580
9088
1261
8899
3387
8049
3846
9926
3813
9189
5359
3646
6997
7690
5159
7899
10031
2980
7868
7337
4189
4870
11566
8359
11068
11335
424
1139
8309
1579
3411
5700
8388
8127
6157
8278
6706
8926
7328
2982
9050
6520
6234
10117
9129
6754
10289
8432
6069
11593
7926
11402
1941
8355
6908
7458
5117
2473
6221
7257
4521
107
4832
2487
10441
4605
8250
7770
217
5173
6131
1851
8081
510
8774
3400
4716
10283
39
9055
3620
11281
1491
4695
6994
4129
9142
2218
7250
8869
3355
4863
346
7417
4201
6290
9638
7413
3898
9327
8537
4889
7100
10888
2221
4868
6330
811
8196
3708
177
8170
9383
4643
2214
3523
8819
457
5284
7613
668
749
1883
908
10234
9139
8324
7889
11662
1368
3886
7228
7108
4394
6482
4519
303
4921
9052
10851
4934
5288
210
3979
3931
7325
9987
2046
2057
4097
2858
3608
6925
11449
4202
2874
7579
7720
3870
6934
4793
9198
398
5943
3105
321
11432
6494
4466
11364
1730
764
1413
2802
5257
4812
4281
6083
9263
11785
2128
11468
8583
8368
3952
10595
9535
473
1175
1768
10297
2585
8725
4794
7836
2075
1501
7506
2150
3928
3689
2405
251
8270
673
8524
747
2495
1213
10630
1807
11100
6532
10684
2227
9370
2913
9985
11564
5859
4449
1786
6834
3031
1393
5804
8473
1981
2351
3465
3412
6715
9840
7414
2715
5617
4913
6062
8269
10510
1530
6730
1347
7881
4219
7324
562
10483
8747
2519
8456
9714
9902
3048
11292
8054
11201
9265
9894
10482
9406
3003
3643
2996
592
10242
1766
8055
4100
9967
180
9399
6032
5331
2614
33
3126
8079
8949
10440
2791
9133
2531
6098
11262
7454
7050
3704
3139
8768
7318
8177
9458
8635
7850
6697
5958
4977
3909
10095
1713
11742
9514
11500
839
10954
1217
9660
8169
9236
5224
11002
6380
1369
8742
10936
1457
9245
6444
3473
10836
2055
7608
11722
4698
9056
3222
11370
7200
10773
3822
3467
2085
11776
408
5484
6558
8709
4475
10984
3405
2019
6427
5027
3413
11666
9962
10396
2407
8534
9807
4454
2290
812
2536
3286
5053
3873
3887
10820
3853
6153
3578
3181
8871
2935
330
1035
4972
6216
1793
6348
5935
7567
5058
3693
8761
9862
10926
7142
2625
11190
4084
6211
3601
4269
7985
5799
7796
10550
3146
92
41
3742
5418
10819
2846
1006
6521
9798
5278
2629
2676
9671
7447
8584
1665
1614
3948
7794
5676
1983
4762
7540
4568
4851
7310
9389
8237
11413
10585
6909
7272
3753
6705
7566
85
1039
2392
135
9010
11638
3524
3838
11166
318
7233
9306
3247
3617
3891
7542
927
9980
1701
6912
6158
6762
2952
2777
5748
9933
8121
11773
11683
10010
2333
8450
7391
2507
1623
10737
6149
7037
2157
5635
9225
8923
2145
3334
11179
4030
6620
8334
8011
8066
9258
11126
3859
9787
10277
70
9909
5228
11012
7323
868
3038
2380
5886
2692
360
8441
5902
4923
1453
4024
8631
1950
3509
7573
7187
2701
6914
1078
1626
10958
5333
8298
8722
5730
7259
5389
6302
7675
7660
10804
4043
7507
2021
5259
7809
4271
5028
6182
11263
7508
11724
1511
10443
8261
2039
465
3013
11157
5547
8991
248
11600
7840
434
1399
5273
4094
4885
10284
6464
