8123
7706
5618
3354
975
976
977
978
979
980
981
982
983
984
985
986
15105
15106
15107
15108
15109
15110
15111
15112
15113
15114
15115
14619
13495
13496
13497
14124
14180
14181
13488
14125
14182
11784
11785
11786
13489
14126
11790
11791
11792
13490
7260
9784
14969
10635
10636
1600
1601
1602
1603
1604
1605
1606
1607
1608
1599
14357
2487
2496
2497
14360
14361
14362
14363
9563
9564
9565
13980
13981
13982
13983
13984
14243
6573
14009
9235
14011
14012
14013
8344
14014
14015
13993
15249
1245
8083
7386
156
157
158
159
1529
1530
1531
1532
1533
3774
3775
12500
12501
10645
10646
10647
10648
10649
12197
12198
12199
12200
12201
15028
15029
15030
15031
15032
8919
8920
8921
8922
8923
11612
11613
11614
11615
11616
4788
4789
4790
1552
1553
1554
1558
1559
1560
13172
13173
13174
13175
13176
13177
13178
13162
13163
13164
13165
13166
13167
13168
13169
13170
13171
11178
11179
11182
11183
5716
5717
14806
3847
3848
317
15247
14650
3695
3696
3697
3698
3699
3700
5904
5905
5906
5907
5908
5909
5910
5911
5912
5913
5914
5915
5916
5917
5925
5926
5927
5928
5929
5930
5931
8514
8515
8516
8517
8518
8519
8520
8527
8528
8529
8530
8531
8532
8533
8541
8542
8543
8544
8545
8546
8576
8577
8578
8579
8580
8581
8582
14966
8089
4756
4757
12769
4758
4759
12770
12771
12772
3812
13866
2463
2464
2465
2466
2467
13661
13662
13663
13677
13678
13679
3838
1367
9928
5147
5148
10787
10788
10789
10790
10791
10792
10034
10035
10203
10204
10205
10207
12259
12260
10479
10883
10884
10885
10886
10887
10888
10889
13840
3265
3166
3167
3176
6124
6125
6126
6127
6128
12188
8841
13594
10279
8168
11950
11987
5279
6705
6706
6707
6708
6709
6710
1312
7578
8700
10381
3825
14462
4063
10075
10076
10077
10078
10079
10080
10081
10082
10083
10084
10085
10086
6052
11345
7205
7203
7204
470
3529
3530
10535
10536
10537
10538
10539
10540
10541
10542
8239
9632
14448
11979
3544
3545
3546
3547
3548
3549
3550
3551
3552
3553
3554
3555
3556
3557
3558
3559
3560
3561
3562
3563
3564
3565
3566
3567
3568
14914
15082
8230
8226
8227
5633
5634
5635
5636
5637
5638
8228
8229
8231
6483
6482
12058
3051
8345
8346
8347
8348
8349
8350
14800
14801
14802
14803
14804
14805
14925
3637
11344
11346
5038
13836
12072
414
896
1859
1860
1851
1852
1853
1854
11453
3027
2735
3028
7513
2739
3035
3036
3037
3038
3039
3799
3800
3801
3802
3803
3804
3805
3806
3807
3808
3809
8180
9524
9525
8326
14604
14605
10290
10291
10292
10293
10294
10295
8548
9714
6412
6413
6414
6415
6416
6417
6418
6419
6420
6421
6422
6423
6424
6425
6426
14596
14597
10180
15159
3124
15086
15098
15099
15100
15101
10708
13228
13229
5258
8114
5772
5773
5774
5775
5776
5777
5778
5779
5780
5781
5782
5783
5784
5785
5018
5019
5020
5021
6437
6438
6439
6440
6441
6442
6443
8498
8499
8500
8501
8502
8503
8504
8505
8506
3900
3901
3902
3903
3708
3709
3710
3711
9089
838
839
6027
6028
6029
6030
6031
6032
6033
6034
6035
6036
6037
6038
6039
6025
6026
15208
15207
5945
5946
5947
5948
5949
5950
5951
5952
5953
5954
5955
9970
11843
11839
11841
3613
3614
3615
3616
3617
3618
3619
3620
3621
11361
11840
1072
960
961
962
4629
4630
4631
8865
8866
6431
6432
6433
6434
6435
8870
8871
8873
8874
8753
9409
54
6345
62
64
1089
1090
1091
63
11358
11359
10591
8833
8834
7631
7632
7633
5600
5603
5578
1341
13897
8101
859
3974
10071
4075
4076
4077
4078
4079
6767
6768
9189
2744
14740
14741
14742
1199
1200
1201
1202
1203
1204
1205
1206
3479
13940
1107
1108
15190
15191
15328
4131
514
515
6869
6870
6871
3869
3870
3871
5312
5313
5314
5315
5316
2317
5431
11233
5287
5432
6219
6216
6217
6218
6802
6803
6804
6805
6806
9556
15040
15041
15042
15043
15044
15045
15046
15047
15048
15049
7630
13968
14860
10191
10192
10185
10186
10187
10188
10189
10190
3872
3873
3874
6747
6748
6749
6750
6751
6752
6753
6754
6755
6756
6757
6758
6759
6760
6761
6762
6763
6764
6765
6766
2318
2319
2320
2321
2322
2323
2324
2325
2326
2327
2328
2329
2330
2331
2332
2333
2334
2335
13482
13483
13484
13485
13486
13487
12109
12110
12111
12112
12113
12114
463
464
465
466
467
468
9655
9653
9654
3537
3538
3536
14924
11675
11676
12159
8702
8703
8704
6307
6308
11763
10312
10824
9590
171
9605
202
6719
6720
6721
6722
6723
6724
6725
6726
6727
6728
6729
11964
11965
11966
11967
11968
7707
11969
11970
11971
11972
11973
5576
3687
9967
9965
9966
3
4
486
11062
1993
449
9763
8319
8316
8317
8318
5176
5292
5293
5294
5295
5296
5297
5298
5299
5300
5301
5302
5303
5304
5305
5306
14117
14113
13732
13733
13734
13735
13736
8508
8509
8510
8511
8512
8513
8583
8584
8585
8586
8587
8588
8589
9786
14101
14102
14103
14104
14105
14106
14107
14093
14094
14095
14096
14097
14098
14099
14100
14706
8764
15150
5151
5152
5153
5154
5155
5156
5163
5164
5165
5166
5167
5168
5169
5170
5171
5172
5173
5174
5187
5188
5189
5190
5191
5192
5193
5194
5195
5196
5197
5198
3184
3185
3186
3187
3188
3189
11517
11518
11519
11520
11521
11522
10012
10013
10014
10015
10016
10017
10059
10060
10061
10062
10063
10064
10065
10066
10067
10068
10069
10070
10596
10597
10598
10599
10600
10601
10602
10603
10604
10605
10606
10607
1963
1964
1965
1966
1967
1968
1969
1970
1971
1972
1973
1974
5876
5877
5878
5879
5880
5881
5882
5883
5884
5885
5886
5887
5888
5889
5890
5891
5892
5893
12323
5416
3444
3445
3446
3769
3290
3770
8383
9634
3135
3136
3137
3138
3139
2406
2407
2408
2409
2410
2411
2412
2413
2414
2415
2416
2417
2418
2419
2420
9330
9331
9332
9333
9334
1641
1642
1643
1644
3371
4348
4349
4350
4351
4352
4353
4354
4355
4356
1645
1840
521
522
14881
11259
832
3179
3180
3223
3224
3205
3943
10781
3206
15088
3108
3109
3110
3111
12339
12340
12341
12338
13317
13319
2056
1248
1249
1250
1251
1257
1258
1259
1260
1261
1247
4838
11408
11409
11405
11406
11407
8190
8189
5609
5610
2661
2657
2658
2659
2660
451
452
453
454
455
456
13476
13477
13478
13479
12103
12104
12105
12106
12107
12108
13480
13481
10743
10742
304
305
306
303
15010
1856
1855
11894
1138
1139
14975
14976
14977
14978
14979
182
8412
5228
5229
5230
5231
5232
5233
5234
5235
5236
5237
5238
5239
5240
5241
5242
5243
5244
10401
10402
10403
10404
10405
10406
10407
10408
10409
10410
10411
10412
10413
10414
10415
10416
10417
10140
10141
10142
10143
10144
10145
10146
10147
10148
10149
10150
10122
10123
10124
10125
10126
10127
10128
10129
10130
10131
10132
10133
10134
10135
10136
10137
10138
10139
8604
8605
8606
8607
8608
8609
8610
8611
8612
8613
8614
8615
8616
8617
8618
8619
8620
10153
10154
10155
10151
10152
5421
5422
5423
5424
5425
479
4206
14067
11781
14063
14064
14065
14066
10637
8910
1828
1829
672
666
667
668
669
670
671
14508
8355
10226
10229
3889
3890
3891
3892
14964
14965
1772
1773
8142
8143
8144
8145
8146
8147
8148
8149
8150
2183
2184
2185
2186
2187
2188
2189
2190
2191
2192
8931
2101
9583
14528
4498
4499
4500
4501
4502
473
11989
9052
14436
4073
4074
14297
4072
13289
13290
13291
13292
13293
13294
13295
13296
13297
13298
13299
2813
2814
2815
2816
2817
2818
2819
2820
2821
2822
2823
11355
15128
15129
15130
11804
11809
15122
15123
15124
15125
15126
15127
11043
11044
11045
9927
4261
15019
11087
6452
11097
8946
1156
15008
13737
12038
12039
12040
12041
12042
492
493
494
495
496
497
498
499
500
501
502
503
504
9459
9460
11234
11235
11236
11237
572
573
574
575
696
697
11314
11315
15225
2312
2313
94
4128
4809
4810
4811
4812
4813
4814
4815
4816
5161
5162
5157
5158
5160
5159
4805
4806
4807
4808
9707
10644
11117
11118
10874
10875
10876
10877
10878
10879
10758
10759
10760
10761
10762
10763
4269
4270
4271
4272
4273
4274
7934
7935
7933
1347
11206
10949
15116
5271
10046
5260
13716
13712
13713
13714
13715
413
10955
10956
6427
6428
6429
6430
10953
4962
4963
4964
4965
10954
3794
3292
7783
7784
7785
7786
7787
7788
7789
7790
7791
7792
7793
7794
7795
7796
7797
7798
13062
13063
13064
13065
13066
13067
13068
13069
1864
1861
1862
1863
8111
7237
7238
7239
7240
7241
7242
531
1309
13154
13155
13727
13728
13729
13730
13731
4829
4830
4831
4832
4833
4834
4835
8211
8212
8213
8214
8215
8216
8217
8218
8219
8220
8221
8222
8223
8224
7899
7900
7901
7902
7903
7904
7905
7906
7907
7908
7909
7910
7911
7912
14061
8352
12613
9255
14062
6602
11632
1345
875
5115
9573
1337
1116
1117
14351
14349
14350
14255
14256
14257
14258
14259
14260
14261
14262
14263
14264
14265
14266
14267
14268
14269
14270
14271
14272
14273
14274
14275
14276
14277
14278
14328
14329
14330
14354
14352
14331
14353
14187
14188
14189
14190
14191
14192
14193
14194
14195
14196
14197
14198
14199
14200
14201
14202
14203
14204
14205
14206
14207
14208
14209
14210
14211
14332
14333
14334
14335
14336
14337
14338
14339
14340
14341
14342
14343
14344
14345
14346
14347
14348
14646
14647
14648
14644
14645
1474
4880
3388
13084
13082
13083
2797
1759
3539
3540
3541
13894
8057
13764
13765
3490
9971
4968
125
5119
14992
3977
3978
3979
3980
3981
3982
3983
7309
7310
7311
7312
7313
7314
7315
7322
7323
7324
7325
7326
7327
7328
7329
7330
7331
735
736
8175
8176
7292
7293
8191
3975
8192
8195
8196
3976
7303
7304
7307
7308
6807
6808
6809
6810
2473
2474
2475
2476
2477
7822
7823
7824
8850
8851
8852
9990
9991
11429
11430
11431
11432
1079
1080
1081
1082
1083
1092
1093
1094
1095
1096
10839
10840
10841
10842
10843
9325
9326
9327
9328
9329
9982
9983
9984
9985
9986
8835
8836
8837
8838
8839
9987
9988
9989
7820
7821
651
652
653
654
475
7774
7775
7776
7777
507
1563
10209
10210
10211
10212
3810
3811
3814
3815
3865
3863
3864
8601
8602
11679
11680
11682
10399
10400
11683
11684
417
418
421
422
11085
11086
1476
1477
6109
6110
6111
5728
5729
6112
6113
6114
6117
6116
6115
6118
6119
6120
6121
6122
6123
8430
8431
362
363
4036
4037
4038
4039
4040
4041
9311
9312
8434
8435
10102
10103
10104
10105
10106
10107
10108
10109
10110
10111
10112
10113
10114
10115
10116
10117
10118
10119
10120
10121
2693
2694
2695
2692
1036
1037
1038
1039
1040
1041
1042
1043
1044
1045
1046
1047
10342
14795
14289
9389
13369
13370
13371
13372
809
810
811
812
813
814
815
816
817
818
819
820
821
822
13373
9644
14880
266
9802
14765
9798
8991
8992
8993
8994
8995
8996
8997
8998
8999
5023
5024
5025
5026
5027
5028
5029
5030
5031
5032
9000
6300
6301
6302
6303
6304
8719
8720
8721
8722
8723
8724
8725
8726
8727
8728
8729
8730
8731
8732
8733
8734
8735
8736
8737
8738
10439
10440
10441
10442
10443
10444
10445
10446
10447
10448
10449
10450
10451
10452
10453
10454
10455
10456
10457
10458
10459
10460
10461
10462
13098
13099
13100
13101
13102
13103
13104
13105
13106
13107
13108
13109
13110
13111
13112
13113
13114
13115
13116
13117
13118
13119
13120
13121
13122
13123
13124
13125
13126
13127
13128
13129
13130
13131
13132
13133
13134
13135
13136
13137
13138
13139
13140
13141
13142
13143
13144
13145
8717
8718
14590
14591
15081
13776
12119
5665
3190
3191
11347
11348
7360
7209
7210
6811
13909
13912
9923
167
8881
1099
9589
13781
11260
8426
12142
10379
13156
13157
13158
13159
4836
4837
3441
3442
3439
3440
9893
9894
519
2422
4185
4186
4184
4881
9570
9587
15322
13095
10900
10901
10902
10903
10904
10905
10906
268
269
270
271
272
273
10907
10908
10909
10910
10911
10912
10913
10914
7755
7756
7757
7758
7759
7760
12498
12499
9313
9314
9315
9316
9317
9318
8561
8562
8563
8564
8565
8566
8567
8568
8569
8570
8571
8572
12410
6011
6012
6013
6014
6015
6016
6017
6018
6019
6020
6021
6023
6024
7076
7077
7078
7079
7080
7081
7082
7083
7084
7085
7086
7087
7088
7089
7090
7091
7092
7093
7094
7095
7096
7097
7098
7099
7100
11523
11524
11525
11526
11527
11528
11529
11468
11469
11470
11471
11472
11473
11474
508
6816
6817
6818
6819
6820
6821
12690
13910
7832
3797
14968
8908
14478
14476
14477
1284
1285
1286
1287
1288
1289
1290
1291
1292
1293
14799
3260
14614
1884
9612
9613
9209
9210
9211
13800
13801
1684
1685
1686
1687
1688
1689
3717
9717
13560
13561
13562
13563
13564
13565
14685
11842
513
2285
3449
3450
3451
3448
2300
13855
13856
13857
13858
13859
13860
13861
13862
13863
2870
2871
2872
2873
2874
2875
2876
2877
14770
14771
7253
7251
7252
4522
4523
4524
4525
4510
4511
4512
4513
4514
4515
4516
4517
15236
15237
7277
4275
4276
4277
4278
4279
4280
8843
478
1754
836
837
840
843
844
845
846
847
7384
10464
9090
8740
13994
8016
8095
8096
8097
13799
11460
11461
11462
11464
11467
3369
1373
2276
2277
2278
2279
2280
2281
2272
2274
2072
2073
2074
2075
2076
2077
2078
2275
13593
8420
8421
8422
8423
8424
3985
3984
11119
3787
3788
10752
9768
5254
5255
5256
9045
1768
1769
1780
1781
4785
4786
4787
4791
4792
4793
11541
15188
4882
7278
1488
1489
23
5527
8943
8944
8945
9063
9064
9065
5253
523
9125
12357
12358
12359
12360
12361
416
419
356
357
420
423
424
8599
8600
11084
6107
6108
11083
8428
8429
415
9968
9698
10559
8634
3433
3434
3431
3432
10463
5468
5469
5470
5471
5472
5473
5474
5475
10161
10162
11005
11006
13919
14569
14570
14420
3264
2798
4062
13974
9822
9761
13864
10948
11207
3569
3570
3571
3572
3573
3574
11928
11929
11931
11933
11935
1024
1025
1026
1027
1028
1029
1030
1031
1032
1033
1034
1023
3348
3413
3414
1171
1172
15282
15175
12462
12463
12464
12465
7340
7341
7342
7343
7344
7345
7346
12466
12467
12468
12469
6581
6582
6583
6584
6585
6586
6587
6588
6589
6590
6591
6592
6593
6594
12470
14409
14415
5445
5446
5447
5448
5449
5450
5451
6603
6604
6606
6607
6608
14292
14293
14294
13149
7529
3256
5645
8235
1983
11635
11636
11637
11638
8281
8282
8283
8284
8285
1747
10827
3332
3333
921
922
6060
6061
6062
6063
6064
3682
10343
14615
925
2194
2193
3422
13572
13573
13574
13575
11001
11002
11300
4942
4943
4944
4945
12860
12861
12862
12863
12846
12847
12848
12849
12850
4191
210
10002
10003
1273
10004
10005
10006
10007
10008
10009
10010
10011
1275
9118
9119
9120
9121
1276
9122
8070
8072
9084
9085
9086
9087
9088
1267
1268
1269
1270
1271
1272
8071
1274
8073
8074
744
10314
8258
14634
1354
1355
5670
5671
5672
5673
5674
1917
14242
808
412
2337
1721
1882
12187
11241
4923
11283
860
211
11664
11634
2803
2804
2805
2806
2807
2808
2809
2810
2811
2812
6511
6512
6513
6514
6515
6516
6517
6518
6519
6520
6954
2712
5585
8158
1890
5257
13632
13633
13634
13635
13636
13637
3296
2893
2894
2895
2896
2897
2898
2911
2912
2913
2914
2915
2916
10557
11980
8125
1240
15354
9498
9499
9500
24
1916
11811
141
13538
7829
7830
7831
8104
8105
8106
9271
9272
9273
10683
10684
10685
13252
13253
13254
10818
10819
10820
13255
13256
13257
13260
13261
13262
4933
4934
4935
13265
13266
13267
10215
10216
10217
7400
7401
7402
10099
10100
10101
8955
8956
8957
8965
8966
8967
15298
15299
15300
97
98
99
100
101
2137
2131
2132
2133
694
695
2134
2135
2136
15310
15311
15312
15313
15314
15315
15316
15317
15318
15319
15320
14036
4207
4208
275
276
9863
2460
15253
5067
4114
4115
4116
4117
4118
4119
4120
4121
4132
4133
4134
4135
6454
6455
6456
6457
6458
6459
6460
6461
6462
3677
3678
3679
3680
10227
9853
10916
8741
10918
10919
10920
10921
8742
8743
8744
8745
8746
10922
10917
10465
10466
10467
10468
10469
10470
10471
13035
13036
13037
13038
13039
13040
13041
13042
13043
13044
13045
13046
13047
410
9929
9930
9931
9932
9933
14537
4169
4170
3950
4538
4539
4540
4541
4167
4168
5130
5131
5433
4799
4800
4801
4802
4803
4804
10289
10296
10297
10298
10299
10300
10301
10302
10303
10304
10305
12950
10864
4376
4377
4378
4379
4380
4381
10228
9692
14762
474
3405
3406
3407
3408
3409
3410
3411
3412
3183
3196
3197
3198
3169
3170
3171
3268
3269
3270
10835
10836
6717
6718
248
249
11352
14639
14640
14641
14642
14643
6780
8924
8925
8926
8927
8928
8929
8621
8622
8623
8624
8625
8626
8627
8628
11143
11144
11145
11130
11131
11132
11133
11134
11135
11136
625
626
627
628
629
630
631
632
11137
11138
11139
11140
11141
11142
1296
12992
12993
9455
9434
9435
9436
9437
9452
9453
9454
7710
7711
7712
7713
8655
8656
8657
8658
8659
8660
8661
9402
14355
10984
10985
10986
10987
10988
2298
2299
11100
14982
14983
14984
14985
14986
14987
14988
14989
14990
14991
13943
13944
13945
13946
13947
14919
14916
14917
14918
140
13537
11810
4921
6340
11317
14705
4991
11667
11669
11670
11671
11672
11673
11674
11678
11681
8265
8266
8267
8268
8269
8270
8271
8272
8273
8274
8427
12927
12928
11216
11217
11208
11209
11210
11211
11212
11213
11214
11215
13315
13316
13222
13223
10732
10733
2229
2230
2231
2232
2233
2234
11493
11494
11495
11496
11497
11498
2662
2663
2664
2665
2666
2667
2034
2035
2036
2037
2038
2039
5644
8234
14796
9410
4108
4109
4110
4111
4112
4113
11549
11550
524
525
11551
11552
11553
11625
11626
13828
13829
13830
13831
13832
13833
13834
12245
12246
12247
12248
12249
12664
12665
12666
12667
12668
754
755
756
757
758
6531
6532
6533
6534
6535
6536
11437
3114
8463
8464
8465
8466
8467
8468
8469
8470
8471
8472
8473
8474
673
674
675
676
677
678
679
7732
7733
7734
7735
7736
7737
7738
687
688
689
690
691
692
693
7739
8447
8448
8449
8450
8451
8452
8453
8454
8462
1376
9683
2437
6776
6777
6781
6782
6783
6789
1561
9215
9216
9217
9214
581
60
1981
7249
6075
6076
6077
6078
6079
6080
6081
6082
6083
6084
6085
9630
2195
11017
11018
11019
505
13347
12019
12020
12021
12013
12014
12015
12016
12017
12018
2344
11061
14068
9512
9513
9514
9515
9516
9517
9518
9519
9520
9521
9522
9523
4970
4971
4972
4973
4974
4975
4976
4977
4978
4979
4980
4981
11243
11244
11245
11983
6950
867
12827
7714
9383
9384
9385
9386
9387
5675
5676
5677
5678
5679
5680
14283
14284
14285
14286
14287
1475
12125
12126
12127
12128
12129
8296
8298
14708
14709
14710
14711
14712
11251
14713
12805
5639
5640
5641
5642
11977
5046
5047
5048
4956
4957
4958
6521
6522
6523
6524
6525
6526
6527
6528
6529
6530
1845
1846
15154
9259
12655
12654
9258
12656
12657
14763
14764
11725
11726
11727
11728
11729
11730
11731
11732
11733
11734
4584
4585
4586
4587
4588
4589
4590
4591
4592
4593
6411
9105
9106
9107
9108
9109
6388
6389
6390
6391
6392
6393
6394
6395
6396
6397
6398
6399
6400
6401
6402
6403
6404
6405
6406
6407
6408
6409
6410
14759
14760
120
14839
14840
14841
14842
14843
14844
2733
2736
7514
2741
4265
4266
4267
4268
4262
4263
4264
6387
10671
10672
10673
10674
10675
10676
10677
10678
10679
10667
10668
10669
10670
14923
10627
7939
7940
7941
7942
7943
7944
352
353
354
355
350
351
14904
2057
2089
2090
2091
8779
8780
8781
8782
8783
8784
8785
8786
8787
8788
8789
8790
8791
8792
8793
8794
8795
8796
1936
1323
1324
1325
1326
1327
1328
1329
1330
1331
1332
11192
11193
11190
11191
10704
1035
12852
1084
1085
401
11630
13619
14240
801
802
1252
1253
1254
1255
1256
11420
11421
1262
1263
1264
1265
1266
11422
11423
11424
11610
231
14592
14529
9582
8810
8811
8812
13226
13227
5703
5704
15156
2737
2747
9066
9067
9068
3460
3461
3462
3463
4242
4243
4244
4245
4246
4247
4248
4249
4250
4251
14241
1473
608
609
610
13242
13243
13244
13245
13246
606
607
3739
9547
9548
9549
9550
14133
14134
14135
14136
14130
14131
14132
3860
3861
3862
6731
6732
6733
6734
6735
6736
6737
6738
6739
6740
6741
6742
6743
6744
6745
6746
9702
13599
13600
13601
11633
9997
11543
3986
3987
2000
1931
1932
1887
1748
1749
1750
1751
1752
14081
14082
14083
14084
14085
14086
14696
4857
4858
4859
5280
11981
7356
7358
7359
12164
13097
8844
8846
5249
4917
5150
7276
10159
10160
9681
9718
405
14887
14888
14889
14890
14891
8981
1491
1493
1494
7403
1190
1191
8778
1121
1122
11349
11350
10653
4995
11534
3578
96
9487
14808
10324
11094
11095
11628
11072
11621
11623
8102
8103
10825
7723
5245
14789
14790
14791
14792
14793
14794
10473
8748
2051
3000
3001
3002
3003
3004
3005
3006
3007
3008
3009
12705
12706
12707
12708
12709
12710
12711
12917
12918
5707
5708
5709
5710
5711
5712
5713
5714
5715
5705
5706
11297
8475
360
361
358
359
1893
12101
13750
6919
15174
14594
542
3427
3428
3429
3430
8777
9495
9496
5459
5460
5461
5462
5463
5464
5465
5466
5467
9497
3795
11058
1294
1302
13905
4727
4728
4729
4731
4732
4733
4736
4737
4738
5286
12755
8375
8376
8377
8185
8186
8378
14940
13332
13333
13334
13335
13336
13337
13338
13339
13325
13326
13327
13328
13329
13330
13331
10323
9532
9533
9534
9535
9280
9536
8327
9388
1349
5524
5525
3668
3669
3670
5526
11958
6701
6702
6703
6704
6695
6696
6697
6698
6699
6700
963
964
965
966
967
968
969
970
971
972
973
974
14959
9846
9847
9848
9849
13951
13952
13953
13954
13955
4210
929
10898
14595
942
943
944
6484
6485
6486
6487
3634
9775
9776
9777
9778
8880
1098
10991
10992
10993
10994
10995
10996
10997
10998
10999
658
659
660
10990
4126
9127
4260
1811
1812
1813
1814
1815
1816
1817
1818
1819
1820
1821
1822
1823
1824
1825
1826
1827
1757
1758
1363
15177
15178
10800
9619
9620
9621
9622
1350
3322
8207
2740
223
1798
13258
13259
13263
13264
8107
8108
15181
3741
10896
10897
491
13853
890
891
13854
9044
3278
9126
12032
10230
15272
15273
15274
15275
15276
15277
15278
15279
15280
320
321
318
319
6637
6638
6639
6640
14836
14837
14838
14832
14833
14834
14835
6634
6635
6636
1987
11341
15258
65
66
67
68
69
70
14633
10313
8257
743
8113
12352
12353
12354
12355
12356
14426
4530
11912
1889
3646
2088
2086
2087
12391
14772
10831
3701
3702
3703
3704
3705
3706
2461
3575
7724
12893
12894
12895
12896
12897
12898
12899
3533
3534
3535
11540
8367
8368
13626
13627
13628
13629
13630
13631
10331
10332
12386
8366
7268
512
10047
10048
10049
10050
10051
10052
13217
13218
13219
13220
13221
14456
15162
9537
9538
9539
9540
9541
9542
10306
3293
425
426
427
428
429
1722
10654
1216
10750
10751
11941
11942
12050
9094
9095
12049
1215
8075
8076
8077
14601
3763
15161
10575
2765
13224
3289
3443
3767
3768
14735
14736
14737
14738
14739
13617
8767
13225
15187
1704
1705
1706
6841
6842
6843
15020
8369
11258
13
12130
12262
14859
4393
4394
4395
6571
4392
6570
7181
7182
7183
7184
7185
7186
7187
7188
7189
7190
7191
7192
7193
7194
7195
7196
7197
7198
7199
7200
7201
7202
4028
4029
4030
569
570
571
7005
7006
7007
7008
7009
7010
7011
7012
7013
7014
7015
7016
7017
7018
7019
7020
7021
7022
7023
7024
7025
7026
7027
7028
7029
7030
7031
7032
7033
7034
7035
7036
7037
7038
7039
7040
7179
7180
137
9577
79
11545
10802
10754
11947
11948
11949
4873
4876
7271
7272
7273
7274
7275
4846
4847
4848
4849
4850
4851
4852
4855
4856
4860
4861
4862
4863
4864
4865
4866
4867
4868
4869
4870
4871
4872
241
12012
12044
12660
12661
12662
12663
12659
12967
12968
12969
12970
12971
12972
12973
12974
12975
12976
12977
13012
13013
13014
2715
2716
2717
2718
13011
6574
6575
6576
6577
6578
6579
6580
13878
13879
13880
13881
13882
5718
5719
1183
13212
13211
2878
2879
2880
2881
2882
2883
2884
2885
10393
10394
9555
11887
11888
11889
11890
11891
11892
11893
11895
11896
11897
11898
11899
11900
11901
10240
10241
10242
10243
10244
10245
10246
3356
3350
3352
5579
5580
5581
4469
4470
4471
3610
3611
3612
3878
3879
3880
13956
13957
13958
13959
13960
13961
13962
13963
13964
13965
13966
13967
12236
10560
11974
9960
14602
7235
12387
12388
12389
12390
9353
9354
9355
9356
9382
14254
9279
14282
10316
10317
10318
10319
10320
12124
12261
14186
8294
8295
14703
8297
14704
8299
8300
8301
8302
8308
12803
6444
6445
6446
9992
1150
5043
5044
5045
4950
4951
4952
4937
4089
4090
4091
4092
4093
4094
9256
9257
4936
15038
3468
10946
14999
15000
14996
14997
14998
6479
4166
1562
1564
4582
10963
10964
10965
10966
10967
10968
10969
10970
10971
10972
10973
10974
6779
10801
11574
11093
11627
13838
14547
15103
232
233
3255
8877
8878
5995
5996
4057
4058
4059
4060
4061
5992
5993
5994
14593
6953
9616
15120
13204
13205
13206
13207
13208
13209
13210
13197
13198
13199
13200
13201
13202
13203
1348
13780
12135
14899
823
824
825
826
827
8939
8940
8941
8942
12875
12994
12995
12996
12997
12998
12999
13000
13001
13002
13003
13004
13005
13006
3271
14980
14981
2866
2867
9640
8411
10655
10656
10657
10658
6311
6312
6313
6314
6315
6316
6317
6318
6319
6320
6321
6322
6323
6324
6325
6326
6327
6328
6329
6330
6331
6332
6333
6334
10847
10848
10849
10850
7396
7397
7398
7399
750
751
752
753
1298
11286
12179
12180
6276
6278
12502
12503
12504
12505
12506
12507
12508
12509
12510
12173
6270
6271
6272
6273
6274
6275
12172
6277
12174
12175
12176
12177
12178
5540
11063
9647
10353
9934
1382
11943
3323
14461
9633
5259
12517
9559
13439
13440
13441
13442
13443
13444
13445
13446
13447
13448
5289
5290
5291
9074
9075
9076
15193
15194
15195
5272
5273
5274
5275
5276
5277
1109
1110
1111
785
15074
15075
15076
15077
9213
8849
8290
11333
11334
11335
11336
11337
11338
11339
11340
13802
11200
11198
11199
13558
2771
2772
2773
2774
2775
14527
14878
7773
7770
7771
7772
9945
2849
2852
2853
2848
7966
7967
7965
3396
1066
1067
3395
3766
2763
536
537
538
539
540
3501
3504
3505
9099
3507
3508
14016
14017
7997
8099
8100
1244
12371
9392
12372
12373
12374
8404
8405
8406
8407
8408
8409
8410
12375
12376
12141
4966
12369
12370
13597
10738
10739
14898
11342
11343
9961
1011
1012
1013
1014
1015
1016
1017
1018
1019
1020
1021
1022
11825
4688
6053
11371
11372
11373
11374
11375
12680
12681
12682
12683
12684
12685
12686
12687
12688
12689
11020
3273
8761
8763
9639
541
604
14118
14114
8875
11769
11770
11771
11772
11773
941
11096
10940
10576
13972
13973
14010
7639
3416
3387
13969
13970
13971
12614
14719
8636
4193
4192
3525
1920
1921
1922
1923
1924
1925
1926
1927
1928
1929
1918
1919
2838
5415
15196
15197
15198
8046
8047
8048
8049
8050
8051
8052
8053
8054
4594
4595
4596
4597
4598
4599
4600
4601
4602
3837
10233
9716
3579
4412
3580
4413
4414
4415
4417
4418
4419
4420
4421
4416
9609
11449
6507
6508
6509
6510
4760
4761
4762
4763
487
15281
11007
11008
11009
11010
7523
7524
322
323
324
325
326
4689
4690
10385
14482
9957
7765
7762
7763
7764
4483
4484
4485
4486
6730
8134
12773
8137
12761
7725
7726
7727
7728
7729
7730
10325
10326
10327
10328
10329
10330
1049
1050
1051
1052
1053
1054
12931
10087
10952
13722
13723
13724
13725
13726
11454
11170
11171
11172
11173
11174
11175
11176
11177
12304
12279
9868
12225
11312
198
1774
1775
3857
3858
3859
1809
1810
1127
1390
1391
8187
8188
7890
14034
14030
14031
14032
14033
9164
14035
15216
13048
13049
13050
13051
13052
13053
13054
13055
10255
10256
10257
10258
10259
10260
10261
10262
10263
11902
11903
11904
11905
11906
11907
11908
11909
11910
11911
10254
12025
12026
12027
12028
12029
12030
12031
1942
3305
6778
3676
3302
3303
3304
8762
11923
11924
11925
11926
11920
11921
11922
14531
1746
5065
545
546
547
548
553
554
555
556
5064
11088
8947
6453
11098
10941
9124
14447
1128
1129
1130
1131
1132
1133
1134
2119
2120
2121
2122
2123
9914
9915
9916
1484
5620
3263
739
9781
9782
9787
9788
9796
9797
10280
10281
8254
11282
12182
8701
5177
5178
5179
5180
5181
5182
5183
5184
5185
5186
10182
12055
1364
15288
15285
15286
15287
1538
561
562
563
564
565
566
567
568
13758
13759
13760
13761
13762
6669
6670
6671
6672
6673
6674
6675
6676
6677
6678
6679
6680
6681
6682
6683
7447
7448
7449
7450
7451
7452
7453
7454
7455
7456
7457
7458
7463
7464
7465
7466
7467
7468
7469
7470
7471
12362
12363
3650
3651
3652
3653
12364
12365
7244
7245
7246
7247
12366
6911
6912
6913
6914
6915
6916
6917
6918
6668
1880
1881
2114
2115
2116
2117
2118
14239
3125
3126
3127
3128
3129
11385
11386
11387
11388
11389
9980
12801
4329
4330
4331
4321
4322
4323
4324
4325
4326
4327
4328
1808
1807
5577
12477
13896
1340
3972
3973
3383
11448
1118
1119
3483
13318
11944
3826
3827
3828
3829
3830
3831
3832
3833
3834
3835
3836
4098
4099
1181
14729
14730
14731
6774
1313
1314
1315
1316
1317
1318
1319
1320
1321
1322
510
2246
2247
1939
1940
1941
14734
10821
10707
404
3295
15037
14432
11000
13640
3384
3491
3485
3486
14603
10214
13937
5594
10927
10928
10929
10930
10931
10932
10933
10934
10935
11443
11444
11445
13506
13507
13508
13509
13510
13511
13512
13513
10583
10584
10585
10586
10587
10588
10589
10590
3417
3418
3419
7261
7262
7263
8813
8814
8815
5262
15087
9036
1800
392
393
394
395
396
15153
544
12951
12952
12957
12958
12959
12960
12961
12962
12963
12964
12965
12966
855
856
857
543
2905
2906
2907
2908
2909
2910
8776
3707
3192
1472
13748
13749
13745
13746
13747
14171
14172
14173
14174
14175
14176
14177
2421
1872
1873
1068
3447
13247
13248
13249
13250
13251
15009
5726
5288
11699
11700
11701
11692
11693
11694
11695
11696
11697
11698
10527
10528
10529
10530
10531
10532
10533
55
56
59
1980
61
1982
7248
7250
3952
3953
4095
4096
160
161
162
163
408
2834
14638
14637
8259
8260
8261
8262
8263
8264
14635
14636
14449
13056
13057
13058
3777
1188
3776
4372
8090
14058
14059
9192
9193
9489
9490
9491
9492
9493
15
11081
6055
6056
6057
6058
10350
4969
481
7317
7316
3220
1953
15217
15218
8351
7925
7926
7927
7928
7929
7930
15092
14757
14758
1946
1947
1948
14510
14511
14512
14513
806
2284
14725
2379
7827
10797
10798
8883
10936
13020
13021
13022
13023
13024
13025
13026
13027
13028
13029
13030
13031
10611
10612
1609
1610
1611
1612
8354
11252
14810
15219
15220
15221
9472
9473
9474
9475
9476
2301
2302
1847
14431
4086
4087
4088
13885
3771
3941
10428
9981
14506
8380
12792
6572
12781
12782
12783
12784
12785
12786
12787
12788
12789
12790
7280
7281
7282
7283
7284
7285
7286
7287
7288
7289
7290
7291
12791
8757
8758
7932
8766
8864
8769
8770
8867
7817
7818
9123
11753
11754
11755
11756
11757
11758
11759
11760
11761
11762
11537
3298
10731
9963
365
3509
3510
3511
3512
3513
3514
3515
3516
3517
3518
3519
3520
7743
7744
7745
7746
10308
10309
139
923
924
2545
7230
9191
11287
2404
1217
1218
1219
2825
2826
2827
2828
2829
2830
2831
2832
2833
2824
1733
1734
1735
1736
1737
3221
8017
13588
13589
13590
13591
13592
13584
13585
13586
13587
14913
11838
2854
2855
10829
2178
2179
2180
2181
2177
12730
7220
7221
7222
7223
7224
7225
7226
7305
7306
14473
14474
14475
14960
14961
4015
4016
4017
4018
4019
4020
4021
3589
10173
10174
800
13789
13790
13791
13792
797
798
799
2401
2757
2758
2760
2761
2762
7515
7517
7518
7519
7520
7521
7522
2751
2752
2753
2754
2755
2756
3081
3082
3083
3084
3085
533
9129
9130
9131
9132
9133
9134
9135
9136
9137
9138
9139
3640
3641
3645
12409
3079
3080
3839
11988
15263
15264
15265
15266
15267
15268
15269
15270
15271
3222
10783
11024
11027
2373
2375
2400
8863
11426
11427
11959
15013
15014
15015
15016
15017
9903
9904
9905
9906
9907
9908
9909
9910
9911
9912
9913
9899
9900
9901
9902
11913
11914
11915
11916
11917
11918
11919
3353
3355
3349
3351
3049
3050
3040
3041
3042
3043
3044
3045
3046
3047
3048
14901
4697
4698
3011
3012
3014
3015
804
203
204
205
206
207
4178
4179
12727
516
517
9461
9462
12728
12478
14179
12615
14253
2965
2966
2967
2968
2969
2970
2971
2972
2973
2974
2975
2976
2977
2978
13358
13359
13360
13361
14798
1766
1767
1386
3594
3595
3596
3597
3598
3599
3600
3601
3602
3603
3604
3605
3606
3607
3608
3609
4453
4454
4455
4456
4457
4458
4459
4460
4461
4462
4463
4464
4465
4466
4467
4468
10424
10425
10426
10427
112
14973
14974
2776
2777
2778
2779
2780
9070
11196
1536
1534
327
14469
3893
3894
3895
3896
3897
3898
3899
3649
9560
9561
9562
6505
6506
15140
2858
2859
2860
2861
2862
2863
3029
3030
3031
3032
3033
3034
3073
3074
3075
3076
3077
3078
5997
5998
5999
6000
1485
4691
4692
11028
5268
14457
14458
14459
14460
11957
11400
9404
14908
3115
3116
3117
3118
3119
3120
3121
3122
3123
4297
4298
4143
4144
4145
4146
4147
4148
4149
4290
4291
4292
4293
4294
4295
4296
9047
11298
8629
9046
6641
13216
14119
14115
14903
2286
3364
3272
14746
14747
14748
2850
2851
11844
11845
11846
11847
11848
11849
11850
11851
11852
11853
12828
12829
12830
12831
12832
12833
12834
12835
12836
12837
12838
12839
12840
12841
12842
12843
10851
10852
10853
10854
10855
10856
10857
10858
532
1310
200
12190
8705
8706
13515
6309
6310
10232
9658
9659
9660
9661
9662
9663
9664
9665
9666
9667
9668
9669
3925
3926
3927
3928
3929
3930
3931
3932
3933
3934
2128
2129
2130
8876
12653
5270
835
10307
8236
11575
11576
11577
11578
11579
11580
11581
11582
11583
945
946
947
948
949
950
951
952
953
8197
8198
8199
8200
8201
8202
8203
8204
8205
12876
16
9505
308
7709
5216
5200
13543
13595
13596
6386
12189
13514
15079
15080
15078
7215
7217
7218
7219
8060
8061
8062
8063
8064
8065
4669
8066
8067
4672
4673
4674
8068
15012
3506
11240
906
907
1103
8900
10630
9924
9925
9926
14427
14428
14755
14756
13756
13757
13754
13755
13890
15353
10945
11070
1410
1411
1412
1413
1414
1415
1416
1421
1422
1423
1424
1425
1426
1427
1435
1436
1437
1438
1439
1440
1441
1442
1443
1444
1445
1446
1447
1448
9643
1396
1397
1398
1399
1400
1401
1402
5528
5529
5530
5531
5532
5533
5534
5535
5536
5537
5538
5539
12851
15291
15292
12856
12859
12607
12626
9558
1361
12779
12780
9580
9581
12816
12815
12806
12807
5502
5503
5504
5505
5506
5507
5508
5509
5263
7741
3675
121
2204
2205
7747
7748
7749
7750
7751
7752
7753
7754
9807
9808
9809
11546
1449
1450
14850
14851
9150
9151
9889
9890
9891
9892
886
887
9806
15180
15050
15051
15052
831
4340
4341
4342
4343
4344
4345
4346
4347
12131
15121
14732
8166
11295
15036
165
9501
9502
9503
9504
10978
10979
10980
10981
11665
866
143
3577
482
9053
9054
9055
9056
9057
9058
9059
9060
9061
9062
12671
12672
12673
12674
12675
12676
12677
12678
12679
5053
5054
5055
5061
5062
5063
476
11279
3990
6225
6226
6227
6228
6229
6230
6231
6232
6233
6234
6235
6236
6237
6238
6239
6240
6241
6242
6243
6244
6245
6246
6247
6248
6249
6250
6251
6252
6253
6254
6255
6256
6279
6280
6281
6282
6283
129
130
131
6284
6285
6286
6287
6288
6289
6290
6291
6292
6293
6294
9393
7361
7362
7363
7364
7365
7366
7367
7368
7369
7370
7371
7372
7373
7374
7375
7376
7377
7378
7379
7380
7381
7382
7383
3320
3321
3324
3325
3326
3327
3328
3329
3330
3331
7426
7427
12181
8669
8670
8671
8672
8673
8674
8675
8676
8677
8678
8679
8680
8681
8682
8683
8684
8685
8686
13340
8058
3140
3141
8059
15117
216
217
218
219
10000
8635
9159
11542
5617
7516
8242
8243
9918
9919
9920
9921
9922
8169
5582
5583
5584
111
2438
14892
14893
14894
14895
14896
8847
7357
619
6135
6136
6137
6138
6139
6140
6141
6142
6143
6144
6145
6146
6147
6148
12165
13196
8845
15185
15186
5250
8122
14540
281
282
283
284
285
286
287
8690
14620
14621
8413
9823
13364
13365
13366
13367
13368
1060
9917
15224
15222
15223
4617
4618
10369
14909
8393
8394
8395
8396
8397
8398
8399
8400
10362
10363
10364
10365
10366
10367
10368
4603
4604
4605
4606
4607
4608
4609
4610
4611
4612
4613
4614
4615
4616
1984
11976
12491
12492
12493
12494
12495
10608
6561
6562
6563
6564
6565
6566
6567
6568
6569
14566
14565
8425
15063
15053
15054
15055
15056
15057
15058
15059
15060
15061
15062
2546
2547
9697
9898
9969
9897
11041
11042
220
6335
6336
6337
6338
6339
7178
9190
12740
9851
10031
15158
5353
5354
5355
5356
5357
5358
5359
5360
5361
5362
13772
13773
6769
5730
5731
5732
5733
5734
5735
5736
5737
15160
1159
1160
1161
1162
1163
1164
114
115
116
117
118
119
14967
8907
8630
9649
6786
14675
13609
13610
2308
2309
2310
2311
2306
2307
3435
3436
3437
3438
8938
8935
8936
8937
4707
4708
4709
4710
4711
4713
4714
4715
4716
4717
4718
4719
4720
4721
4722
4712
9715
5120
10741
11250
8209
11584
11060
11059
8291
243
244
245
6
2383
2384
2385
15329
10983
10982
8765
11395
9319
9320
9321
9322
9323
8896
246
247
4474
4475
4476
4477
4478
4479
4480
4481
4482
3628
3629
3630
3631
3632
3633
12102
740
8181
2288
888
889
3199
3200
11116
3481
1389
11311
3477
1115
14165
14166
14167
14168
14169
14170
15001
15002
15003
15004
15005
14164
8980
2052
2053
2054
149
12753
3948
11629
11867
11868
11869
11870
11871
11872
11873
11874
11875
11876
11499
11500
11501
11502
11503
13604
13605
13602
13603
15189
169
13268
13269
13270
13271
4388
4389
4390
8559
9391
14291
3476
8335
8336
8337
8338
8339
8340
8341
8342
8343
3993
3994
3995
3996
3997
3998
3999
4000
4001
4002
4003
4004
4005
4006
4007
4008
14785
5037
14786
14781
14782
14783
14784
5685
5686
5687
5688
5689
5690
5691
5692
5693
5694
5695
5696
5697
5698
5699
5700
12237
12238
12239
12240
12241
12242
12243
12244
13777
13778
13779
14787
14788
14288
13826
14212
8328
8329
8330
8331
8332
8333
8334
15335
1539
1540
1541
1542
1543
1544
5087
5088
10156
11715
9696
12904
12905
958
14463
14464
14465
14466
15332
403
4897
6463
7634
7635
7636
7637
7638
9771
9772
9773
9774
2899
2900
2901
2902
2903
2904
6839
10768
10769
10770
10771
10772
10773
10774
10775
10776
4444
4445
4446
4447
4448
4449
4450
4451
4452
10340
15084
199
5545
9183
9184
9185
9186
11079
11076
11077
11078
1632
737
738
1633
1634
1635
1636
1637
1638
1639
1640
1631
1627
1307
1308
1629
1630
1628
7318
7319
13763
255
9695
9947
9948
9949
13580
13581
13582
13583
15252
4982
4983
4984
4985
4986
4987
4988
791
792
793
794
795
796
15143
1763
1764
8078
8079
8080
8081
8082
9149
9854
9855
9856
9857
9858
9859
7875
10756
642
643
644
645
14122
12588
12589
12590
12592
12593
12594
12595
12596
12597
14524
14525
14526
9153
9154
9155
9156
9157
9158
3016
3017
3018
3019
3020
3021
3279
3280
3281
3282
3283
3284
1497
3683
3684
3685
7404
7405
7406
7407
7408
868
869
7409
7410
7411
13852
13849
13850
13851
15182
10892
10893
2046
11377
15023
15024
15025
15026
15027
15284
528
14214
1105
328
329
330
331
332
14481
11122
11123
11124
11125
11126
11127
11128
2405
2738
2748
7766
7767
7768
7769
9871
9872
9873
9874
9875
9876
9877
9878
9879
9880
9881
9882
9883
9884
9885
9886
9869
9870
11255
11256
11257
14847
14848
14849
8358
8359
8360
9281
9282
9283
9284
9285
9286
9287
9288
9289
9290
9291
9292
9293
9294
9295
9296
9297
9298
9299
9300
9301
9302
9303
9304
9305
9306
9307
9308
9309
9310
13751
3593
3089
3090
3091
3092
3093
3094
7834
7835
7836
7837
7838
7839
7840
7841
7842
7843
7846
7844
7845
7847
7848
7849
7850
7851
7852
7853
7854
7855
7856
7857
7858
7859
7860
15035
8932
8934
122
7819
7949
7269
7265
7266
7267
4634
9850
12226
656
657
10942
655
13523
7395
2479
2480
2481
2482
2483
2484
2485
2486
3523
4879
7950
7951
7952
7953
7954
7955
7956
7957
7958
7959
14807
6093
6094
6095
6096
6097
6098
6099
6100
6101
6102
6103
6104
6105
6106
6622
6623
6624
6625
6626
6627
6628
6629
6630
6631
6632
6633
15131
15132
15133
15134
15135
15136
15137
15138
15139
5420
11106
11107
11108
11109
2889
2890
2891
2892
2921
2922
2919
2920
2917
2918
2887
2888
10595
14941
3088
14773
13908
13889
13907
1978
7565
1986
7566
1988
10520
10521
10522
10523
10524
10525
10526
3193
1976
57
58
1979
7564
15337
15338
15339
15340
15341
15342
15343
15344
15345
15346
15347
15348
15349
15350
15351
15352
136
14720
14721
14722
14723
14724
14955
11396
6790
5132
5133
8798
13717
13718
13719
13720
13721
12404
1753
3053
9680
3306
3307
3308
3309
290
291
292
293
294
295
296
297
298
299
300
301
302
12311
12312
12313
12314
12315
12316
12317
12318
12319
12320
12321
12322
9824
9825
9826
9827
9828
9829
9830
9831
9832
9833
9834
9835
908
909
910
1097
489
13179
13180
13181
13182
13183
13184
13185
13186
13187
13188
13189
13190
13191
13192
13193
13194
13195
10025
3424
13272
13273
13274
13275
13276
13277
13278
13279
13280
13281
13282
13283
13284
13285
13286
13287
13288
3421
9956
4764
4765
4766
4767
4768
14649
9651
3286
11394
1760
1761
1762
1461
1462
1463
1464
1465
4745
4746
4747
4748
4749
4750
4751
4752
4753
4754
4755
4817
4818
4819
4820
4821
4822
4823
4824
4825
4826
4827
4828
4744
1501
1502
1505
1506
1507
1508
1509
1510
1511
1512
1513
1514
1515
1516
1517
1518
1519
1520
1521
15021
9232
11573
11092
11622
15255
6773
6771
8752
9401
8801
8802
10625
10534
8970
10923
10093
10478
2478
5369
5370
5367
5368
1120
11940
13620
13621
13622
13623
883
8110
2713
15142
1365
5199
11064
3226
3227
3228
3229
3230
3231
3232
3233
3234
3235
3236
3237
3238
3239
3240
3241
3242
3243
3244
3245
3246
3247
3248
3249
3250
3251
3252
3253
14692
14693
8135
12774
8138
12762
3521
3935
2707
2708
2709
2710
2711
8898
4619
4620
4621
4622
4623
4624
4625
4626
4627
4628
11812
11813
11814
11815
11816
11817
11818
11819
11820
11821
6775
8990
872
4877
3945
3946
3944
17
13814
10651
151
8547
12543
12544
12545
12546
12547
12548
12549
12550
6797
6798
6799
6800
6801
10024
2378
2268
2266
2269
2065
2066
2067
2068
2069
2070
2071
2262
2264
2265
2270
2271
2267
4433
4434
4435
4436
4437
4438
4439
4440
4441
4442
5604
5605
5606
5607
5608
6658
6659
6660
6661
6662
6663
6664
6665
6666
14311
4083
4084
4085
4201
4202
4203
4204
4205
4196
4197
4198
4199
4200
1566
1799
12698
12699
12700
12701
12702
12703
12704
12712
12713
12714
12715
12716
12717
12718
12719
12720
12721
12722
12723
12724
12725
480
884
885
78
14480
13892
10238
9713
11047
9152
11046
13987
12729
4254
4255
4256
4257
4258
4259
10382
3840
526
527
15257
14616
14617
8210
14618
881
8225
8232
8233
2369
2370
5481
5482
5483
5484
5485
5486
5487
5488
5489
5490
5491
5492
5493
5476
5477
5478
5479
5480
8716
8711
8441
8442
8443
6448
6449
6450
8444
8712
10429
10430
10431
10432
10433
10434
10435
10436
10437
10438
8713
8715
8707
8714
8710
8436
8437
8438
8439
8440
5749
5750
5751
5752
5753
5754
5755
5756
5757
5758
5759
5760
5761
5762
5763
5764
5765
5766
5767
5768
8708
8709
14600
937
4123
4124
4125
13941
13942
13883
13884
13887
13888
13898
13899
13900
13901
15283
3294
4361
4362
4363
4364
4357
4358
4359
4360
10321
10322
333
10397
8574
8575
10398
11082
9995
5149
1565
5899
5900
5901
5902
5903
5894
5895
5896
5897
5898
5934
5935
5936
5937
5938
5939
5940
5941
5942
5943
5944
9506
9507
9508
9509
9510
9511
7936
7937
7938
12496
12497
2377
9526
13827
9687
10095
10094
9686
10236
4693
4694
4695
4696
12741
12742
12743
12744
2
490
938
3342
3343
13374
13375
13376
13377
13378
10472
7931
9703
9704
9705
8747
8982
8983
8984
8985
8986
8987
8988
12879
12880
12881
12882
12883
12884
12885
12886
12887
12888
12889
12890
10710
10711
10712
10713
10714
10715
10716
12891
12892
10072
10073
10074
1876
1877
8136
12775
8139
12763
12377
12378
12379
12380
12381
12382
12383
12384
12385
2719
2389
2388
13524
13525
13526
13527
11805
11806
11807
11808
11253
14845
11254
14846
8356
8357
7918
7919
7914
7915
7916
7917
11205
9940
9941
9942
9943
9944
2260
2261
10895
865
9335
9336
9337
862
10894
12924
12925
12926
12948
12949
12932
12933
12934
12935
12936
12937
12938
12939
12940
12941
12942
12943
12944
12945
12946
12947
6379
6380
6381
6382
6383
6384
6385
11332
10089
6376
6377
6378
4137
4138
4139
4140
4141
4142
4281
4282
4283
4284
4285
4286
4287
4288
4289
4136
7206
7207
7208
14470
7833
14248
14249
14250
14251
14252
4898
4899
4900
4901
4902
4903
4904
4905
4906
4907
4908
4909
4910
4911
4912
4913
4914
9264
4916
9263
12632
12633
9265
1466
1467
1468
1469
1470
2244
4681
4682
4683
4684
4675
4676
4677
4678
4679
4680
14768
14769
14502
14503
14504
14501
1523
2886
13740
13741
13742
13743
13744
14995
4122
1207
1208
1209
1210
1211
1212
1213
1214
12623
12567
12568
12539
12540
12541
12619
12542
13311
12620
12621
12622
7869
7870
7871
7872
7873
12616
6464
6465
6466
6467
12617
9033
9034
9035
12618
9037
9038
9039
9040
6477
6478
9041
9042
9043
6889
6890
6891
6892
6893
6894
6896
6897
6898
6899
6644
6645
6646
6647
6648
6649
6650
6651
6900
6901
6902
6903
9345
9346
13312
13313
13314
10231
6784
4874
10213
11504
12802
150
11539
11538
1756
109
110
15157
14761
2734
2403
13711
583
7227
12731
3054
9051
8894
14505
1613
1614
1615
1616
1617
1618
1619
1620
1621
1622
1623
1624
1625
1626
9946
4723
4724
4725
4726
4130
152
153
154
155
3542
3543
15018
1848
1849
1850
4127
9618
1989
1990
1991
1992
9231
82
9861
9862
9226
9227
9228
9229
9230
3013
3765
14691
2316
3181
3182
11945
8385
8386
8387
8388
8389
8390
8391
8392
8832
9237
12056
3866
3867
3868
1383
10384
12669
12670
11316
11322
10845
10593
11302
11304
8840
13638
9405
4105
4106
4107
14411
14412
14413
10390
6305
6306
12461
12512
12513
12514
12515
10474
10475
10477
10480
8445
6451
4425
4426
4427
4428
4429
4430
4431
4432
12634
12635
12636
12637
12638
12639
12640
12641
12642
12643
12644
12645
12302
12303
10687
10688
10689
441
442
443
444
445
446
447
448
6642
6643
12793
6667
12826
4636
4637
4638
4639
4640
4641
4642
4643
4644
4645
4646
4647
4648
4649
8749
8750
12868
12869
10826
579
580
597
598
599
600
601
602
620
621
622
623
624
10891
10915
6878
6879
6880
6881
6882
6883
6884
2781
2782
2783
2784
2787
2788
2789
2790
2791
2792
2795
2796
6888
8960
8961
8962
8963
8964
8968
8969
8971
8972
8973
8974
8975
8976
8977
8978
8979
6930
6931
6932
6933
6934
6935
6936
6937
6938
6939
4929
4930
4931
4932
4938
4939
4940
4941
7620
7622
15321
12844
13449
13450
7567
13451
13452
13453
13454
7568
13455
13456
13457
13458
13459
13460
13461
13462
13463
13464
13465
13466
13467
9369
13468
7336
7347
7582
7583
7584
7585
5546
7586
5547
7587
5548
7588
5549
7589
5550
5551
5552
5553
5554
5555
5556
5557
5558
5560
3379
3382
9569
7531
7532
7533
7534
7535
7536
7537
7538
7539
7540
7541
7542
7543
7544
7545
7546
7547
7548
7549
7550
7551
7552
7553
7554
7555
7556
7557
7558
7559
7560
7561
7562
7563
5510
5511
5512
5513
5514
5515
5516
5517
5518
5519
5520
5521
5522
5523
7569
7570
7571
7572
7573
7574
7575
7576
7577
7579
7580
7581
7590
7591
7592
7593
7594
7595
7596
7597
7598
7599
7600
7601
7602
7603
7604
7605
7606
7607
7608
7609
7610
7611
7612
7613
7614
7615
7616
7617
7618
7619
5559
7621
5561
5562
5563
5564
5565
5566
5567
5568
5569
5570
5571
5572
5573
7731
7742
5738
5739
5740
5741
5742
5743
5744
5745
5746
5747
5748
7805
7806
7807
7808
7809
7810
7811
7812
7813
12051
12052
12053
12054
6885
6886
6887
10037
12183
12184
12185
12186
12192
12193
12194
12195
12196
12203
12204
12205
12206
12207
12215
12216
12217
12218
12219
12220
12221
12222
12223
12224
14281
12265
12266
12267
12268
12269
12270
12271
12272
12273
12274
12275
12276
12277
12278
12299
12300
12301
4100
4101
4102
4103
4104
11743
11744
11745
11746
11747
11748
11749
11750
11751
11752
13782
164
12152
8507
5796
5281
5282
5283
5284
5285
128
2836
10709
15209
15210
15211
15212
15213
2372
1537
1535
12908
12909
12910
12911
12912
5057
5056
13363
841
10703
3478
9527
9528
9529
9530
9531
14632
509
11129
13624
384
385
386
382
383
7137
7138
7139
7140
7141
7142
7143
7144
7145
7146
7147
7148
7149
7150
7151
7152
7153
7154
7155
7156
7157
7158
7159
7160
7161
7162
7163
7164
7165
7166
7167
7168
7169
7170
7171
7172
12347
12348
12349
12350
12351
4531
4532
4533
4534
4535
4536
4537
11611
6436
11428
11827
11828
11829
11830
11831
13389
13390
13391
13392
13393
13394
11826
10626
3373
3654
4967
935
8759
11186
992
993
994
995
996
997
998
987
988
989
990
991
1387
2245
14560
14561
14562
14563
14564
14936
6770
9201
9202
9203
9204
9205
9206
9207
9684
9685
5853
5854
5855
5856
5857
5858
5859
5860
5861
5862
5863
5864
5865
5866
5867
5868
5869
5870
5871
5872
5873
5874
5875
11184
10032
10865
11185
10036
5264
5265
5266
5267
11197
10206
10208
10753
10755
10793
10890
6259
749
6257
6258
3813
15227
15228
9477
9478
9479
9480
9481
9482
9483
9484
9485
9486
2945
2946
2947
2948
2949
2950
2951
15226
7349
617
618
7351
7353
7355
12163
13160
8772
13161
8775
11203
11204
178
179
7913
3502
3503
10543
10544
10545
10546
10547
10548
10549
6468
6469
6470
6471
6472
6473
6474
6475
6476
12551
12552
12553
12554
12555
12556
12557
12558
12559
12560
12561
9972
9973
9974
9975
9976
9977
14606
14607
14608
14609
4129
4175
4176
4177
4953
4954
4955
11803
11800
11801
11802
12022
12023
2565
2566
2567
2568
2569
2570
2571
2572
2573
2574
2575
2576
2577
2578
2579
2580
2581
2582
2583
2584
2585
2586
2587
2588
2589
2590
2591
2592
2593
2594
2595
2596
2597
2598
2599
2600
36
37
38
39
40
41
42
43
44
45
46
47
48
49
50
51
52
53
2102
2103
2104
2613
2614
2615
2125
2126
2127
11378
2668
2669
2670
2671
2672
2673
2674
2675
2676
2677
2678
2679
2680
2681
2682
2683
2684
2685
2686
2687
2688
2689
2690
2691
2701
2702
2703
2704
2705
2706
6863
6864
6865
6866
6867
6868
11509
11510
11511
11512
11513
11514
11515
11516
2303
2304
2305
2601
2602
2603
2604
2605
2606
2607
2608
2609
2610
2611
2612
848
849
850
851
852
853
1894
1895
1896
1897
1898
1899
1900
1901
1902
1903
1904
1905
1906
1907
1908
1909
1910
1911
1912
1913
1914
1915
1954
1955
1956
1958
1959
1960
1995
1996
1997
2560
2561
2562
2563
2564
14818
14819
14820
14821
14822
14823
14824
4875
3204
8879
11313
13528
7270
2248
2249
2296
2297
2235
2236
12133
14290
9390
13550
13551
13552
13553
13554
13555
2548
2549
2550
2551
2552
2553
2554
2555
2556
2557
2558
2559
15229
15230
15231
3359
14926
3423
3936
1299
11289
11290
11291
11292
11293
3291
5918
5919
5920
5921
5922
5923
5924
8521
8522
8523
8524
8525
8526
2390
5412
274
312
309
310
311
11294
14694
14695
9785
9048
187
188
189
190
11376
14714
14715
14716
14717
14718
14544
14545
12305
12306
5307
5308
5309
5310
5311
5317
5318
5319
5320
5321
5322
5323
5324
5325
5326
5327
5328
5329
5330
5331
5332
5333
5334
5335
5336
3753
3754
3755
3756
3757
3758
3759
3742
3743
3744
3745
3746
3747
3748
3749
3750
3751
3752
113
13542
11822
9128
858
5363
5364
5365
5366
8193
8194
7332
7333
7334
7335
250
251
14144
14145
14146
14147
14148
14149
14150
4769
4770
4771
4772
4773
2498
2499
2500
2501
2502
3022
3023
3024
3025
3026
2535
2536
2537
2538
2539
2540
2541
2542
2543
2544
4739
4740
4741
4742
4743
14939
1943
1944
1945
1949
1950
1951
897
14697
12854
12855
12857
12858
12864
12865
12866
12867
1581
1582
1583
1584
1585
1586
10420
8631
1357
1358
1359
1360
1394
3266
5727
5797
5798
5799
5800
7254
7255
7256
13060
13061
13059
14970
2381
2382
2380
9767
9764
9765
9766
7740
12256
12257
12258
12077
12078
12079
12080
12081
12082
12083
12084
12085
12227
12228
12229
12230
12231
12232
12233
12234
12235
14410
12250
12251
12252
12253
12254
7257
7258
7259
12255
12003
12004
12005
12006
12007
12008
12009
12010
12011
12280
12281
12282
12283
12284
12285
12286
12287
12288
12289
12290
12291
12292
12293
12294
12295
12296
12297
14571
168
1220
1221
1222
1223
1738
1739
1740
1741
8560
13793
12160
6022
254
13738
1867
1868
1869
1870
1871
8206
14767
14766
11224
11225
11223
2439
2440
2441
2442
2443
2444
2445
2446
2447
2448
2449
2450
2451
2452
2453
2454
2455
2456
2457
2458
2459
12577
12578
12579
12580
12569
12570
12571
2743
12572
2749
14416
12573
12574
12575
12576
6488
6489
6490
6491
6492
1106
6493
6494
6495
6496
6497
6498
6499
6500
6501
6502
9591
11410
11411
11412
11413
11414
11415
11416
11417
11418
11419
14108
14109
14110
14111
14112
3130
3131
3132
3133
3134
10859
10860
10861
10862
10863
5083
5084
5085
5086
14852
14853
14854
14855
14856
14857
14858
1569
1570
1571
1572
1573
1574
13429
13430
13431
13432
13433
13434
13435
13436
13437
13438
14920
10286
2040
2041
2042
4299
4300
4301
4302
4303
4304
11280
11288
11065
3648
7459
7460
7461
7462
12334
12335
12336
12337
8446
3789
5817
5818
5819
5820
5821
5822
5823
5824
5825
5826
5827
5828
5829
5830
5831
5832
13929
13930
13931
13932
13933
13934
13935
13936
5647
5648
5649
5650
5651
5652
5653
5654
9413
9414
9415
9416
9417
9418
9419
9420
4473
4472
9762
71
72
73
74
75
76
14440
13921
13922
13923
13924
13925
13926
13927
13928
3721
3722
3723
3724
3725
3726
3727
3728
3729
3730
3731
3732
3733
3734
3735
3736
3737
3738
3718
3719
3720
2616
2617
2618
2619
2620
2621
2622
2623
2624
2625
2626
2627
2628
11764
11765
11766
11767
11768
4081
4082
4080
126
13473
13474
11778
11779
11780
13475
14154
14155
14156
14018
520
11296
5338
5339
5340
5341
5342
5343
5344
5345
5346
5347
5348
13428
13419
13420
13421
13422
13423
13424
13425
13426
13427
4946
4947
4948
4949
15327
13613
13614
9615
7920
7921
7922
7923
7924
9543
9544
9545
9546
15102
704
705
7264
10828
1381
11053
11054
11055
11056
11057
10163
10164
10165
10166
10167
10168
10169
10170
10171
10172
9837
9838
9839
9840
9841
9842
9843
9844
9845
12057
13146
4699
4700
4701
4702
4703
4704
4705
4706
3793
8115
8170
8171
8172
8173
11284
1192
1193
1194
1195
1196
1197
1198
1295
1303
15248
1246
8005
13494
13215
741
7339
12726
11281
6206
6207
6208
6209
6210
3937
3938
3939
3940
999
1000
1001
1002
1003
1004
1005
1006
1007
1008
1009
1010
870
871
14623
14624
680
681
682
683
684
685
686
8455
8456
8457
8458
8459
8460
13606
13607
13608
124
5419
10950
2742
14137
14138
14139
14140
14141
14142
14143
3842
3843
3845
3846
4391
11446
15323
15324
5771
8495
8496
8497
745
746
747
12145
12143
12144
5769
5770
940
15144
1843
1844
14686
14687
14688
14689
14690
5337
15091
1378
13094
6130
6131
6132
6133
6134
1961
11441
14572
14573
14574
14575
14576
14577
14578
14579
14580
12906
12907
9953
9954
9955
8872
7528
8687
10423
6260
13985
1343
12990
12991
10881
13950
4305
4306
4307
4308
4309
4310
6785
6983
6984
6985
6986
6987
6988
6989
6990
6991
6992
6993
6994
6995
6996
6997
6998
6999
7000
7001
7002
7003
7004
14238
15006
13997
13998
13995
13996
4667
7176
7445
7446
9568
577
9642
3415
9656
9657
5599
11154
11155
11156
11157
11158
11159
11160
11161
11162
11163
11164
11165
11166
11167
11168
11169
611
10702
9208
3318
3319
3988
3989
4187
7641
7642
7643
7644
7645
7646
7647
7648
7649
7650
7651
7652
14546
12024
12155
12156
12157
5786
5787
5788
5789
5790
5791
5792
5793
5794
5795
12158
13783
13784
13785
13786
13787
13788
10090
10091
10092
12146
12147
12148
12149
12150
11639
11640
11641
11642
11643
11644
11645
11646
11647
11648
11649
11650
11651
11652
11653
11654
11655
11656
12151
12153
12154
7432
7433
7434
7435
9579
11099
15155
12845
3259
7338
954
8208
12764
12765
9866
9867
6851
6852
6853
6854
6855
6856
11447
8182
8183
9376
8362
8363
8364
8365
5212
5213
5214
5215
5666
5667
5668
5669
578
2714
8126
5251
5252
92
14451
3420
1755
13401
5418
4190
3500
13213
13214
13556
14879
10224
11066
8133
13557
6850
10706
8244
8245
4231
5134
5135
5136
5137
5138
5139
11040
9679
9670
9671
9672
9673
9674
9675
9676
9677
9678
14438
14439
14437
518
3358
2080
2462
11152
11153
11146
11147
11148
11149
11150
11151
10633
10634
14358
664
665
1977
1985
12134
10288
14922
15151
1056
1057
1058
1059
8370
8371
8372
8373
8374
1055
170
3052
13949
9614
7874
7825
7826
9117
4503
4504
4505
4506
4507
4508
4509
14483
8691
8692
8693
8694
8695
8696
8697
8698
8699
11201
11202
371
372
373
374
375
12873
12874
3375
1277
15215
9836
9606
3376
3378
3257
7625
7530
864
3113
4180
4181
4182
4183
14020
14021
12582
9347
12583
863
4546
4547
3112
8015
8799
485
11180
11181
11369
11370
10088
13739
576
7629
15141
9572
14123
11535
11536
13752
13753
10341
3772
3773
13238
13239
13240
13241
8432
8433
10388
10389
11074
11075
14418
14419
201
3368
11978
3790
3487
25
26
27
28
29
30
31
32
33
34
35
7474
7475
7476
7527
435
436
437
438
439
440
7525
7526
1498
1499
1500
2141
2142
2143
2144
2145
2146
2147
2148
2149
2150
2151
2152
2153
2154
2155
2156
2159
2160
2161
2162
2163
2164
2165
2166
2167
2168
2169
2170
2171
2172
2173
2174
2175
2176
11606
8598
13798
345
6086
4382
4383
1952
186
10278
15242
1395
6925
6920
6921
6922
6923
9439
9440
11101
9438
2386
2387
12563
12564
12565
12566
12624
3655
3656
3657
3658
3659
3660
3661
3662
3663
3664
3665
3666
3667
4555
4556
4557
4558
4559
4560
4561
4562
4563
4564
4565
4566
4567
4583
12405
6904
6905
6906
6907
6652
6653
6654
6655
6656
6657
6908
6909
6910
12562
14927
14928
14622
9212
3992
11398
1930
7422
7423
7424
7425
12516
12518
12519
12520
12521
7279
6091
6092
10784
10785
10786
6087
6088
6089
6090
10624
1525
1526
1527
1528
14958
8901
8902
8903
8904
8905
8906
1088
2402
11716
4065
4066
4067
4068
10951
9412
12121
12122
12342
12343
12344
12345
12346
398
2759
15033
15034
10650
10938
10939
11617
1104
10628
8933
12202
185
5932
5933
4055
4056
13505
134
1555
1556
1557
2182
12263
12264
9585
3469
3470
3471
3472
3473
3474
15333
15334
4194
4195
4188
4189
2124
2079
14678
11121
14679
14680
14681
14682
14683
14684
8293
14677
409
10391
10392
10395
10396
5107
5108
5109
5110
5111
5112
506
8918
5129
5121
5122
5123
5124
5126
5127
5128
2745
2746
2371
1112
1113
1114
3457
3458
3459
3456
10421
8092
3195
8643
14060
6212
1342
13948
10882
4493
4494
4495
4496
4497
3061
3062
3063
3064
5125
12871
12872
13567
3316
3317
8238
9638
280
10838
10837
279
776
11571
11572
10718
10719
10720
21
15089
9769
9770
9104
9593
11071
5725
5701
5702
1857
1858
11452
14749
14750
11003
11004
221
222
14454
180
181
1676
1677
1678
1679
1680
1681
1682
1683
2315
1297
11285
3625
3626
3627
3622
3623
3624
14676
13085
13086
13087
13088
13089
13090
13091
13092
13093
3740
3465
3466
3467
3464
15096
15097
15094
15095
15022
14530
14233
14234
14235
14236
14237
14698
14699
14700
14701
14702
9935
9936
9937
9938
9939
4311
4312
4313
4314
4315
4316
4317
4318
4319
4320
10202
10181
15007
14043
14044
14045
14046
14047
14048
14049
14050
14051
14052
14053
14054
14055
14056
14057
5966
5967
5968
5969
5970
5971
5972
5973
5974
5975
5976
13618
6711
6712
6713
6714
6715
6716
10822
12043
12045
12046
230
3480
14433
2469
2470
2471
2472
2468
9604
9557
8098
13470
13471
11775
11776
11777
13472
14151
14152
14153
7782
3947
9408
11401
11402
11403
11404
12120
411
5175
14120
14116
14430
1377
9780
9783
956
14610
14611
14612
14613
6295
6296
6297
6298
6299
5452
12692
12693
12694
12695
12696
12697
12691
242
2720
11025
11026
10782
14414
14435
5413
14971
14972
144
145
146
147
148
2923
2924
2925
2926
2927
2928
2929
2930
2931
14452
209
6840
11548
1186
1187
9993
3370
13844
13841
13842
13843
8303
11068
11069
8930
14707
5453
5454
5455
5456
5457
5458
6872
6873
6874
15171
15172
15173
1333
1334
6857
6858
7294
7295
7296
7297
7298
7299
7300
7301
7302
14905
3764
11220
11221
11222
3314
3315
2932
9574
12980
12981
12982
12983
12984
12985
12986
12987
12988
12978
12979
8249
11531
3386
15246
9725
9726
9727
9728
9729
9730
9731
9732
9733
9734
9735
9736
9737
9738
9739
9740
8632
3267
7657
1568
1567
5385
5386
5392
5393
5394
5395
5396
5397
5398
5399
5400
5401
5402
5403
5404
5405
5406
5407
5408
5409
5410
5411
5382
5383
5384
3876
3875
1883
3877
9641
1885
9421
9422
9423
9424
9425
9426
9427
9428
9429
9441
9442
9443
9444
9445
9446
9447
13300
13301
13302
13303
13304
13305
13306
13307
13308
13309
13310
11533
13362
2314
13147
15250
13352
13353
13354
11425
9406
11239
2865
3055
14663
14664
14665
14666
14667
14668
14669
14670
14671
14672
14673
14674
1801
1802
3452
3453
3454
3455
11975
4233
4234
4235
4236
4237
4238
4239
4240
4241
14042
4229
4230
4232
10943
10944
22
13915
14157
14158
14159
14160
14161
14162
14163
7229
77
878
879
8603
8251
12161
8252
8253
14455
708
709
710
711
712
713
714
715
716
717
718
719
720
721
722
723
724
725
726
727
728
729
730
731
732
733
734
12171
108
8177
14743
14744
14745
11475
7716
212
213
7715
214
7717
7718
215
3345
3344
511
13598
10735
1836
1837
1838
1839
10734
5040
9617
12870
10631
10632
13566
10832
10419
11984
3361
3362
3363
3360
13540
12309
12310
13539
10033
15293
10183
10184
10764
6813
6814
6815
5001
5002
5003
5004
5005
5006
5007
5008
8027
8028
8029
8030
8031
8032
8033
8034
8035
8036
5000
1782
1783
9962
8379
7945
7946
7947
1408
1409
1417
1418
1419
1420
1428
1429
1430
1431
1432
1433
1434
1403
1404
1405
1406
1407
1487
2043
2044
2045
1765
11554
11555
11556
11557
11558
11559
11560
11561
11562
11563
11564
11565
11566
11567
11568
11569
11570
14753
14754
4883
4885
4887
4889
4891
4893
4895
4492
8415
8416
8417
8418
8419
8756
12900
12901
3287
1723
7213
7214
7216
4670
4671
7211
7212
13236
13237
13234
13235
11439
11440
8856
8857
8858
9403
11451
8862
11438
10568
10569
10570
10571
10572
10573
10574
742
8246
8247
12123
11067
11585
14629
8255
8256
10310
959
2196
2197
2198
2199
3796
1384
6350
6351
6352
6353
6354
6355
6356
6357
6358
6359
10844
11321
10592
11301
5146
14296
4069
4070
4071
12033
12034
12035
12036
12037
13559
939
3010
10609
4685
4686
4687
11823
11824
15240
15241
15238
15239
12132
1184
1185
11735
11736
11737
11738
11739
11740
11741
11742
8275
8276
8277
8278
8279
8280
11685
11686
11687
11688
11689
11690
11691
11668
8309
8310
11677
10333
11666
13684
13685
13686
13687
13688
13689
13690
13691
13692
13680
13681
13682
13683
1
483
484
13766
13767
13768
13769
12598
12599
12600
12601
12602
12603
12604
12605
12606
9465
9165
9166
9167
9168
9169
9170
9171
9172
9173
9466
9467
9468
9178
9179
9180
9181
9182
9469
9470
5611
5612
5613
5614
5615
5616
9463
9464
4211
4212
4213
4214
4215
4216
4217
4218
4219
4220
4221
4222
4223
4224
4225
4226
4227
4228
1451
1452
1453
1454
1455
1456
1457
1458
1459
1460
10026
10027
10028
10029
10030
14906
4529
4526
4527
4528
8481
8482
8483
8484
8485
8486
9103
11796
10193
9362
9363
11797
11798
11799
10199
10200
10873
9701
3522
13911
1073
1074
1075
1076
1077
1078
9998
9049
9050
12307
12308
15325
15326
14863
14864
14861
14862
1366
4994
3366
12853
12795
12796
12797
12798
12799
12800
87
9864
9865
9887
9652
8
9
10
11
12
4924
4925
4926
4927
4928
13803
13804
13805
13806
13807
13808
13809
13810
13811
13812
13813
12808
12809
12810
12811
12812
12813
12814
3202
9650
10287
14921
955
9779
9895
9896
6844
6845
6846
6847
6848
6849
15251
11380
11381
11382
11383
11384
11331
10594
10846
8842
11330
6366
6367
6368
6369
6370
6371
6372
6373
6374
6375
11303
11624
9706
3791
2423
2424
2425
2426
2427
2428
2429
10796
11226
11227
11228
11229
11230
11231
10794
10795
9260
9261
9262
8948
8949
8950
11544
15192
9635
1962
1351
4422
4423
4424
10018
10019
13705
1304
1305
2766
2767
2768
2769
2770
9805
1062
12914
11997
11998
11999
12000
12001
7693
7694
7695
7696
7697
7698
9110
9111
9112
9113
9080
9081
9082
9083
7659
7660
7661
7662
7663
7664
7665
7666
7667
7668
7669
7670
7671
7672
7673
7674
7675
7676
7677
7678
7679
7680
7681
7682
7683
7684
7685
7686
7687
7688
7689
7690
7691
7692
9584
15330
15331
9411
10947
3203
9592
5544
12211
12212
12213
12214
12208
12209
12210
8642
1069
11607
93
8662
8663
8664
8665
8666
8667
8668
9364
8084
8085
8086
8087
8088
9365
9366
9367
9368
13999
14000
14001
14002
14003
14004
14005
14006
14007
9266
9267
9268
9269
10803
10804
10805
10806
10807
14008
14025
14026
14027
14028
14029
9160
9161
9162
9163
10868
10869
10870
10871
10872
7799
7800
7801
7802
7803
9348
9349
9350
9351
9352
552
549
550
551
11505
7477
7478
7479
7480
7481
7482
7483
7484
7485
7486
7487
7488
7489
7490
9624
3792
13503
6829
6830
6831
6832
6833
6834
6835
6836
6837
6838
6822
6823
6824
6825
6826
6827
6828
4989
4990
10686
10975
10976
10977
8958
10989
1832
1833
10610
8882
13032
13033
13034
14424
7761
8597
13502
6072
5022
10830
10640
10641
10642
10643
13341
13342
13343
13344
13345
13346
13516
13517
13518
13519
13520
13521
13522
8913
8914
8915
8916
1646
1647
1648
1649
1650
1651
1652
4668
828
9588
12794
873
13469
14121
7337
14484
13835
176
177
1653
1654
1655
1656
1657
1658
1659
1660
1661
1662
469
8911
11782
10638
14359
14245
14246
14247
14244
11962
9551
9552
9553
9554
4443
3590
3591
3592
7816
9964
3688
11029
11030
11031
11032
11033
11034
11035
11036
11037
11038
5371
5372
5373
5374
5375
5376
5377
5378
5379
5380
5381
3389
3390
3391
3392
3393
3394
1522
1524
15256
8751
9690
9691
9693
9694
7815
10476
2206
2207
2208
2209
2210
2211
2629
2630
2631
2632
2633
2634
11481
11482
11483
11484
11485
11486
2016
2017
2018
2019
2020
2021
5217
11586
11587
11588
11589
11590
11591
11592
11593
11594
11595
11596
11597
11598
11599
11600
11601
11602
11603
11604
11605
1189
14626
15093
5683
5684
5681
5682
12804
4884
4886
4888
4890
4892
4894
4896
10038
10039
10040
10041
10042
10043
10044
10045
10659
10660
10661
10662
10663
10664
10665
10666
13895
7236
3262
236
237
238
239
240
15071
15072
15073
15070
3991
6503
6504
15301
15302
15303
15304
15305
15306
15307
15308
15309
1352
1353
9708
2802
1830
1831
3524
208
7472
7473
7626
7627
14075
14076
14077
14078
14079
14080
4635
535
4150
4151
4152
4153
4154
4155
4156
4157
4158
4159
4160
4161
4162
4163
4164
4165
582
584
585
80
81
11877
11878
11879
11880
11881
11882
11883
11884
11885
11886
9852
13986
702
703
706
7894
7895
7896
7897
7898
12522
12523
12524
12525
12526
12527
12528
12529
12530
12531
12532
12533
4332
4333
4334
4335
4336
4337
4338
4339
12534
12535
12536
12537
12538
12064
12065
12066
12067
12068
12069
12070
12071
4387
4396
4397
4398
4399
4400
4401
4402
4403
4404
4405
4406
4407
4408
4409
4410
12092
12093
12094
12095
12096
12091
5042
4548
4549
7640
4568
4569
4570
4571
4572
4573
4574
4575
4576
4577
4578
4579
4580
4581
1486
3217
3218
3219
3299
3300
3301
14486
14487
14488
14489
14485
14356
1841
1842
12115
12116
12117
12118
7320
7321
3489
3488
6220
6221
6222
6223
6224
9494
10422
107
12166
12167
12168
12169
12170
8650
8651
8652
8653
8654
2488
2489
2490
2491
2492
2493
2494
2495
6684
6685
6686
6687
6688
6689
6690
6691
6692
6693
6694
6539
6540
6541
6542
6543
6544
6545
6546
6537
6538
10833
10834
252
253
14651
14652
14653
14654
14655
14656
14657
14658
14659
14660
14661
14662
12745
12746
12747
12748
12749
12750
12751
777
778
779
780
781
782
783
784
8109
6791
880
1385
11249
3844
11961
5627
5628
5629
5630
5631
5632
10717
256
257
258
259
260
261
262
263
264
265
12435
12436
12437
12438
12439
12440
12441
12442
12443
12444
12445
12429
12446
12447
12448
12449
12450
12451
12452
12453
12454
12455
12456
12457
12458
12459
12460
12430
8884
8885
8886
8887
8888
8889
8890
8891
8892
8893
12433
12431
12432
12426
12427
12428
10613
10614
10615
10616
10617
10618
10619
10620
10621
10622
12411
12412
12413
12414
12415
12416
12417
12418
12419
12420
12421
12422
12423
12424
12425
12434
11015
11016
9236
11014
9637
267
1999
14523
12920
12921
12922
12923
1140
1141
1142
1143
15179
8868
8869
13615
13616
930
931
932
933
934
9274
9275
9276
9277
9278
8128
8129
8130
8131
8132
14425
8954
9072
9073
12646
12647
12648
12649
1865
1866
1362
5140
5141
5142
5143
5144
5145
11012
11013
10639
8912
11783
11392
11393
11390
11391
13320
13321
13322
13323
13324
15199
15200
15201
15202
15203
15204
15205
15206
3482
3484
13639
11351
14935
14931
14932
14933
14934
3942
11659
11663
11660
11661
11662
10372
10373
10374
10375
10376
10377
10378
11657
11658
397
430
431
432
433
434
1344
874
9571
11238
854
6924
9743
9744
9745
9746
9747
9748
9749
9750
9751
9752
9753
9754
9755
9756
9757
9758
9759
9760
9741
9742
14472
8633
7658
9623
8184
9888
10020
10021
10022
10023
366
367
368
369
370
2839
14938
1471
4920
10223
8116
8117
8118
8119
8120
8121
10218
10219
10220
10221
10222
1545
1546
5050
5051
5052
4959
4960
4961
13918
6187
6188
6189
6190
6191
6192
6193
6194
6195
6196
6197
6198
6199
6200
6201
6202
6203
6204
6205
14811
14812
14813
14814
14815
14816
14817
5203
5204
5205
5201
5202
586
587
588
589
590
591
592
593
594
595
596
5206
5207
5208
5209
5210
5211
7653
7655
1346
1356
10558
8018
8019
8020
8021
8022
8023
8024
8025
8026
2953
2954
2955
2956
2957
2958
2959
2960
2961
2962
2963
2964
2979
2980
2981
2982
2983
2984
2985
2986
2987
2988
2989
2990
2991
2992
2993
2994
2995
2996
2997
2998
2999
2938
2939
2940
2941
2942
2943
2944
2952
6595
6596
6597
6598
6599
6600
6601
12002
9098
15295
9096
15296
15297
9101
1241
1242
1243
9100
9097
9102
5619
1669
1670
1671
1672
1673
1674
1675
288
289
172
173
12956
12953
12954
12955
9996
14883
14884
14885
14886
472
9069
9810
9811
9812
9813
9818
9819
9820
9821
8112
9951
9952
9950
334
8760
8476
8477
8478
8479
8480
6792
6793
6794
6795
6796
1935
901
902
903
904
905
10937
10623
12325
12326
12327
12328
12329
12330
12331
12332
12333
1803
1804
1805
1806
13230
13231
10235
344
529
530
6043
6040
6041
6042
4777
4778
4774
4775
4776
3636
1547
1548
1549
1550
1551
2200
2201
15214
8055
13893
