8156
8988
11253
744
8372
10452
3669
4127
11287
11420
5411
6208
1512
6867
10928
9632
11774
4740
5553
10666
9199
9553
19
6167
3547
8585
2932
8951
8765
4442
2360
613
5221
8836
1408
3971
10292
7281
1010
5641
11513
10547
9103
10795
5146
8500
10536
850
3372
5379
11741
6931
1418
3745
10829
1432
1022
647
5731
1142
6322
5890
5292
9368
2319
1747
533
3615
5932
11271
7856
3499
8559
970
10379
3994
4580
5397
7185
8852
6601
8545
149
1650
6412
8370
6407
1275
11485
4901
396
6847
3857
8462
7808
2288
8327
6282
4747
7562
3852
3827
6438
6271
4083
9642
1323
4872
2231
11136
10107
3219
2751
5363
5322
4303
9350
3116
8814
8451
7132
9334
8104
4110
6713
9402
7282
3448
7962
3508
6637
6177
8351
9536
9336
7216
5652
6849
8879
4828
7998
7053
5727
2174
3027
8343
10018
9257
7039
3919
101
8267
8719
900
3781
5860
9597
7148
8909
4299
5756
862
3131
99
6106
385
429
1643
2714
9997
5769
7383
6504
9022
6398
7816
8695
11565
4513
11471
1662
6690
10859
6562
1670
483
11517
119
10549
6884
10270
5211
11291
5414
5508
7191
10080
7781
5202
10356
9899
10798
9143
3487
9423
5270
6459
4782
5963
914
1068
8805
8140
2216
7499
6545
3111
7750
8918
2412
4845
11701
7582
4046
4786
8715
1355
9941
9675
7887
7853
3780
11650
461
1470
2109
3425
2406
8606
3037
4192
6435
3065
304
7696
2184
7615
7733
8568
200
10103
3021
4850
379
5556
11699
2859
6634
9247
10543
2252
5638
4447
47
10850
6880
6120
5632
11084
1671
624
2609
2020
11538
9711
9387
9197
11766
245
5938
5204
7465
1720
2088
3995
5130
8064
4617
9947
6346
2102
3550
958
4771
10237
3784
11669
2142
10953
518
9191
6794
3526
10544
3379
5180
5061
9623
6333
3234
6425
8486
5580
6341
9102
11733
1277
3837
1634
2956
1320
1433
9747
8124
9520
4381
1496
2453
5076
10672
468
14
5467
8000
7722
9639
2009
10841
3000
4639
487
1479
5015
9779
2754
11605
1219
8382
1383
8799
1744
5489
1953
6086
1166
9124
6543
8530
8379
2876
8485
7139
7601
8550
3148
8678
2245
9187
5426
3562
5361
11622
4060
7438
50
8271
10165
9239
7963
9749
95
6554
2417
8968
3297
10354
4700
3132
9884
700
1053
2742
3858
7189
218
214
4401
2189
7607
10408
1617
11101
2688
6193
3352
7070
8727
2564
932
1178
9490
9565
1121
9952
5303
8023
6821
10649
967
573
10394
11072
357
3207
3328
651
6227
6440
856
11759
5961
9251
7254
6357
8052
10131
10874
2732
9449
3698
4610
10754
3130
7271
11775
3546
1002
6621
7174
554
2664
8934
4995
7580
9088
1261
8899
3387
8049
3846
9926
3813
9189
5359
3646
6997
7690
5159
7899
10031
2980
7868
7337
4189
4870
11566
8359
11068
11335
424
1139
8309
1579
3411
5700
8388
8127
6157
8278
6706
8926
7328
2982
9050
6520
6234
10117
9129
6754
10289
8432
6069
11593
7926
11402
1941
8355
6908
7458
5117
2473
6221
7257
4521
107
4832
2487
10441
4605
8250
7770
217
5173
6131
1851
8081
510
8774
3400
4716
10283
39
9055
3620
11281
1491
4695
6994
4129
9142
2218
7250
8869
3355
4863
346
7417
4201
6290
9638
7413
3898
9327
8537
4889
7100
10888
2221
4868
6330
811
8196
3708
177
8170
9383
4643
2214
3523
8819
457
5284
7613
668
749
1883
908
10234
9139
8324
7889
11662
1368
3886
7228
7108
4394
6482
4519
303
4921
9052
10851
4934
5288
210
3979
3931
7325
9987
2046
2057
4097
2858
3608
6925
11449
4202
2874
7579
7720
3870
6934
4793
9198
398
5943
3105
321
11432
6494
4466
11364
1730
764
1413
2802
5257
4812
4281
6083
9263
11785
2128
11468
8583
8368
3952
10595
9535
473
1175
1768
10297
2585
8725
4794
7836
2075
1501
7506
2150
3928
3689
2405
251
8270
673
8524
747
2495
1213
10630
1807
11100
6532
10684
2227
9370
2913
9985
11564
5859
4449
1786
6834
3031
1393
5804
8473
1981
2351
3465
3412
6715
9840
7414
2715
5617
4913
6062
8269
10510
1530
6730
1347
7881
4219
7324
562
10483
8747
2519
8456
9714
9902
3048
11292
8054
11201
9265
9894
10482
9406
3003
3643
2996
592
10242
1766
8055
4100
9967
180
9399
6032
5331
2614
33
3126
8079
8949
10440
2791
9133
2531
6098
11262
7454
7050
3704
3139
8768
7318
8177
9458
8635
7850
6697
5958
4977
3909
10095
1713
11742
9514
11500
839
10954
1217
9660
8169
9236
5224
11002
6380
1369
8742
10936
1457
9245
6444
3473
10836
2055
7608
11722
4698
9056
3222
11370
7200
10773
3822
3467
2085
11776
408
5484
6558
8709
4475
10984
3405
2019
6427
5027
3413
11666
9962
10396
2407
8534
9807
4454
2290
812
2536
3286
5053
3873
3887
10820
3853
6153
3578
3181
8871
2935
330
1035
4972
6216
1793
6348
5935
7567
5058
3693
8761
9862
10926
7142
2625
11190
4084
6211
3601
4269
7985
5799
7796
10550
3146
92
41
3742
5418
10819
2846
1006
6521
9798
5278
2629
2676
9671
7447
8584
1665
1614
3948
7794
5676
1983
4762
7540
4568
4851
7310
9389
8237
11413
10585
6909
7272
3753
6705
7566
85
1039
2392
135
9010
11638
3524
3838
11166
318
7233
9306
3247
3617
3891
7542
927
9980
1701
6912
6158
6762
2952
2777
5748
9933
8121
11773
11683
10010
2333
8450
7391
2507
1623
10737
6149
7037
2157
5635
9225
8923
2145
3334
11179
4030
6620
8334
8011
8066
9258
11126
3859
9787
10277
70
9909
5228
11012
7323
868
3038
2380
5886
2692
360
8441
5902
4923
1453
4024
8631
1950
3509
7573
7187
2701
6914
1078
1626
10958
5333
8298
8722
5730
7259
5389
6302
7675
7660
10804
4043
7507
2021
5259
7809
4271
5028
6182
11263
7508
11724
1511
10443
8261
2039
465
3013
11157
5547
8991
248
11600
7840
434
1399
5273
4094
4885
10284
6464
2755
7075
10720
1516
1282
8404
2459
7535
6856
7474
6679
7549
3274
11814
5465
9733
3059
2620
11282
543
10925
8137
2069
5770
4779
7751
6769
11748
5044
2727
6162
3684
5262
733
1905
2012
4450
10184
1683
2344
7306
4918
6145
11780
5802
4105
8003
2201
6743
11160
2873
4064
7068
9659
4026
3025
902
7647
6118
4336
8883
4113
8764
1669
6822
1692
1935
2054
7971
9690
7626
1208
2929
10548
9237
5882
7824
2820
8025
10937
708
6244
4184
5787
4900
1157
8664
35
7976
3595
9023
2685
2471
10617
3370
428
11415
10125
6639
1430
1188
9896
2522
6489
2788
1791
10175
3422
10880
3264
3485
704
5718
8495
1402
2210
4877
608
5155
7103
10228
5979
1427
5994
8297
758
3369
2447
7346
11720
1805
399
3889
542
9724
9647
1414
6014
5398
8828
9953
2168
7442
5042
367
2124
7225
5826
4162
8108
7019
63
8193
7876
4436
4738
2675
2342
6682
1844
10373
11544
9534
3755
427
3652
2154
2127
5431
8542
3299
7338
6369
676
11652
9294
10574
11694
6592
4102
1839
5464
7702
1210
7247
11332
9889
740
0
8493
7565
2847
4343
3772
11810
4010
8603
4696
6307
1434
4829
4205
2337
4344
2215
4705
6778
5740
8371
5523
7890
3468
11687
216
8165
5350
2901
866
5106
2879
6428
7303
4982
9863
6275
5653
2628
11723
7308
3482
6273
4773
795
10896
1421
4191
9379
8158
2588
3761
6387
11329
10834
6961
4676
683
8242
5385
3418
577
11269
11009
2608
8658
4387
4345
761
3060
1688
11350
6782
7217
4317
8139
5692
9857
3975
9975
11629
6253
1595
2927
8644
9507
1740
8413
7658
4048
8274
1041
5168
2422
1655
173
169
8733
2390
8039
3724
1272
2995
960
8796
10853
8062
883
3616
8085
799
9901
6805
5282
9177
8187
11435
8536
4081
6850
6817
3002
3470
3650
2534
1160
3842
9482
4347
9293
6657
7760
586
3529
4847
2993
6249
1732
9522
7738
11240
2457
1147
11418
1608
6220
10274
10039
2910
8394
4404
9934
3088
1373
6223
2619
2455
10490
10021
6050
1498
103
9174
7769
2474
5441
4879
3544
5952
5186
4148
10922
4587
8911
5009
291
7801
3773
10751
8216
4077
4864
4536
5478
11674
6578
3187
7936
5589
4245
7637
2318
4403
7307
578
2357
4649
4376
3800
5098
5419
9390
8071
5099
6911
3068
9784
7379
621
1971
6152
8912
9713
1697
5339
3942
4743
265
6950
2753
4035
2540
1285
8376
4606
10025
3728
3251
3100
2108
11389
10694
1396
259
2254
1718
2389
1803
756
10243
10796
7042
10232
4099
6029
7095
8263
6720
694
10032
2517
5125
3399
2655
3101
5697
4353
8083
2760
7317
9596
4098
7646
10933
10046
6502
3955
9388
5128
3819
1237
5614
5576
2613
7879
8674
8048
6795
1783
4714
6636
10124
1904
11333
11355
3910
4746
3621
9606
9473
1061
5751
7590
1254
952
1602
9307
3694
1118
7234
9309
9008
8861
5566
11434
6486
1562
4874
4115
8520
10401
9917
2391
8431
3542
4448
6662
6840
1056
1146
5470
3263
2377
6013
3169
8
6951
3265
3488
5843
96
1459
6161
426
11273
4049
8185
3574
7745
5230
8829
5477
979
1042
6798
10481
8089
3094
2943
2301
7422
8094
6408
582
11460
5265
8251
6661
2452
3
10671
410
3963
9663
1896
3254
3660
6487
263
4950
439
3692
4597
9629
9221
1107
7060
10066
5169
88
2818
6497
2916
7635
4393
3785
274
1281
6983
9357
3946
9267
9974
10878
2167
2388
11487
4674
5613
6085
415
10565
3984
7320
10685
11149
10908
710
11745
5038
407
10758
9722
4352
8779
11648
9484
7268
7923
2483
2238
3721
1965
7007
8570
6786
8686
1523
7532
7585
2651
1110
9701
1406
9369
5092
11516
10749
4308
3290
5908
10065
3014
6775
10881
10939
10873
633
11476
3231
7113
3329
9758
5980
131
10992
455
9304
9422
10714
774
4890
311
5181
8358
1722
9016
469
8746
1350
9618
4265
8129
10780
247
993
736
5183
8689
1825
8807
6105
4028
563
4638
10143
4489
1576
2963
4993
2119
2372
11074
6125
9386
9756
4429
10451
79
2034
796
5928
5360
2439
6503
10567
3282
7001
8876
3098
5289
8423
10319
8881
333
3043
8398
9956
1084
5400
450
9026
10260
3284
293
1250
1145
4600
3706
5584
9569
7092
4439
8145
6203
6913
852
1494
9791
4215
1954
5719
3541
3585
4948
188
1123
7199
1934
6858
11808
5894
1984
7066
2144
9297
5595
8029
500
290
10029
7198
7516
5538
11360
5121
8403
5281
590
6870
11372
10506
6842
5654
2627
8022
9723
4907
4410
777
9705
299
10220
1090
1194
7942
9613
8614
532
8109
971
2680
4629
1113
11365
3160
1592
2270
7525
6206
6729
1082
2998
4574
3912
11005
7243
2813
11456
9332
6507
6512
5298
2807
8630
2691
2771
4954
11470
4040
46
5800
1149
10522
895
5990
7497
765
6123
7220
7708
7871
1923
10509
6391
3314
6130
10171
2919
4074
565
2684
9401
8826
11596
7213
1011
11804
7488
11617
7021
6247
3288
7334
8420
8425
10296
5034
1978
8908
6189
4093
11594
10023
3495
10723
8758
5736
3833
1345
1444
8572
8142
2239
8872
2516
6651
7886
1593
7299
8116
8147
5707
80
5272
2464
6475
921
335
4541
11147
1570
2087
7711
1572
8069
7925
4684
1964
11764
9128
1509
8257
2638
3989
4457
9572
3006
7825
1845
8304
111
3441
10952
472
3973
819
3125
1795
9404
11141
8268
7689
7612
11121
4789
9004
7834
10412
1183
31
7591
11676
6292
3602
1566
9814
6325
73
3540
5471
7883
4441
2183
9611
8328
3954
2420
8677
7798
4688
1111
7900
2465
5840
11014
11241
373
10599
4264
10121
10338
9230
4731
6760
4292
10487
3344
1193
45
4373
1201
11623
11109
11053
9883
1578
5773
10185
10620
4680
3118
1584
5706
10219
10091
10078
4767
6567
1864
6613
9125
10862
315
10130
2986
3582
10221
6343
9232
2631
5220
1472
9469
5885
5046
4418
6329
5665
5226
2036
9453
1351
1071
11055
11651
5279
4459
8892
4807
9810
8735
1594
4139
409
11501
6808
11090
9157
576
10430
4844
8975
5684
8917
5466
6987
713
4553
937
11039
1087
4207
7087
9824
7089
7810
3133
1454
5425
2232
2709
881
9193
1710
11560
4375
11058
8084
9485
5066
6861
2948
4924
10849
6433
11051
4365
6923
1597
9425
5561
3519
8531
3244
10659
1180
11474
10419
2576
11726
6779
5294
10761
4707
7884
9476
5517
4257
2759
10427
9892
1691
5805
123
6932
1952
5601
2864
4250
2271
3115
8047
7150
9044
8060
9856
5234
4504
9575
7960
1891
8694
6561
295
3143
7981
4224
2236
1785
11303
286
8101
1758
6663
1284
9706
5903
9978
10366
5817
7752
8516
2503
8688
549
3576
2340
4641
11289
3794
5267
3896
4474
4149
10690
4526
10420
4989
10860
10200
2909
4228
7670
5123
4395
9341
4407
5030
1303
7510
4549
10711
6384
4730
2328
10911
7172
10781
10658
9295
3034
9527
11048
9156
3194
9681
5236
7305
467
6001
6510
4604
106
3090
10435
10301
6300
411
8416
8284
9990
8075
6196
8624
4118
9577
9275
5680
3884
5549
11097
9343
9161
1862
10913
9809
10423
7242
5424
5023
29
4329
2973
9969
568
11338
9796
1245
5380
1458
9603
1835
316
108
10746
7631
7452
8887
8249
11557
6927
2527
4176
4295
3458
5344
6418
2678
4537
7149
2444
4880
7298
973
2442
4602
6673
5662
8181
10885
5739
1374
2894
6945
10750
5163
10
2974
7645
9725
9551
5711
3941
718
7695
4978
11598
735
11511
5735
2348
2140
6222
11667
909
4502
496
9025
5153
4618
6678
1206
4279
8059
6702
1195
8541
11257
3647
7911
5936
2611
7589
288
3671
3208
3492
8114
5297
388
836
3855
3011
7292
2325
5504
11684
6747
1112
2310
9887
9707
3210
2626
6800
267
4808
3447
8361
9456
3079
2957
10154
3635
6365
1379
9349
9315
416
8956
4111
1962
620
1703
6107
4957
2960
2615
6088
5091
5822
9081
1190
9003
7728
3921
10340
9002
5848
6101
1506
4685
11705
7038
8641
11378
11522
794
730
6939
8385
5964
9742
11610
1745
8902
8095
6114
11528
2589
1199
9533
8106
6417
5250
10507
1889
5113
11441
32
7800
6903
10282
9214
10529
8821
8463
7278
10831
6148
3315
5372
10246
8729
3424
4233
1486
605
11107
6814
1533
6717
8247
7169
3325
10073
1330
6393
957
3403
7316
6458
5503
11611
1660
1026
10527
4710
1247
655
623
8279
6392
2199
2582
4112
4253
10265
9037
6784
8741
11270
6321
11758
1746
11479
11715
9622
3705
76
9709
8484
7706
8042
10328
2260
1775
6134
93
3449
7930
4073
714
1076
6649
5199
10076
2015
1885
5323
5643
6742
1488
9421
8430
7603
4721
5461
4693
3107
1437
1233
185
5629
9392
4894
8131
1297
5948
4359
4246
8289
3082
7975
4055
6768
381
3016
1155
4963
8074
1728
2586
9620
2425
1253
10476
3017
6533
5837
5496
2498
4023
5821
2191
10673
11227
11189
3026
6180
10973
6594
530
3204
6277
11558
4862
5378
4398
6608
5225
10727
2855
144
10485
9190
6319
2492
5500
8280
9938
10054
5100
4453
4220
11108
788
6948
2673
3528
7949
2030
6237
7692
3206
7691
431
7201
1780
7248
3656
5349
349
3272
6495
42
7290
981
2312
9090
2954
9676
4952
9557
8019
11210
4766
7453
916
6252
6724
10224
1616
4367
9345
6480
7389
1833
4194
8544
6301
8521
782
8672
1156
1536
8440
6209
2826
8408
6186
3463
2401
10462
5993
5165
5527
2152
4333
4089
10889
10313
9164
8703
8600
9219
5761
10592
7819
11106
8748
7882
7347
10244
1731
9773
10632
11417
3045
1870
4768
2211
9954
6076
3707
10553
8875
3307
9261
2107
8974
8961
9419
10014
567
7528
5170
2367
9107
10259
7520
440
2018
9955
9287
9616
4438
10960
4226
5982
11236
1224
5610
2592
11545
5008
36
10866
3532
2249
11052
5514
6954
9085
10494
6631
10164
8509
11590
7775
8528
1360
8113
6691
486
3592
8063
2984
9353
9563
10358
637
7768
6113
3881
3404
3702
4047
11784
8904
3520
10980
167
1915
2816
8296
4092
7487
10309
5945
4914
801
2138
6883
2922
742
6057
11358
9270
6075
9988
11045
9875
8757
5328
3883
2478
715
11006
10392
6095
4337
9394
8587
2089
9266
8604
6755
3691
1834
6827
6005
9351
8618
3851
3944
6517
8024
2485
5427
5792
11668
6388
1886
23
9781
11258
1309
5616
789
3776
6753
11173
6700
2514
3613
4720
8312
8046
4415
10644
3914
1957
11280
5682
6632
2882
6044
9282
8888
9296
5317
11746
9329
5362
6896
7740
7120
10347
1226
4667
11739
3061
5006
3323
6886
7518
3717
1310
5920
8936
9035
6851
5129
6379
3238
1822
9864
1315
7759
5863
2315
3316
9316
2595
9407
1339
8690
738
965
252
10205
2098
872
9222
4754
8581
3437
11125
9684
8576
8638
3938
3312
9385
4867
5405
10198
7028
6080
6607
8163
8118
3305
3777
11586
447
6061
56
11541
3685
476
3461
6434
8778
4619
5438
3658
7517
7965
750
6874
4640
376
2458
9573
6143
4132
10402
6501
4772
11801
4770
2884
3688
2400
4622
3752
10534
6423
4810
11255
7469
9248
7505
10581
8856
227
5337
2317
3035
9188
5087
2648
1508
5762
11026
1684
499
9648
1699
1877
6045
513
5026
9870
9104
7685
3679
5364
11461
474
11170
10657
10875
9346
5833
6676
5071
480
10724
4653
2577
10693
9704
3295
6853
9112
6580
9604
7375
10742
1349
3233
7793
2992
8759
11717
8217
1606
10497
2762
10327
2955
1659
11499
1446
6037
1020
705
11770
1866
4598
10768
5149
2122
2574
9552
1921
11140
5937
7727
1419
4881
3651
4899
2025
594
1558
9906
7947
10570
4366
5844
2058
9489
10653
6455
4532
11323
3421
9039
3349
3710
11399
6845
6756
535
9305
292
2836
4341
2870
10163
5064
8336
4464
6187
5032
1318
7371
3958
6192
5491
9994
6386
5421
6270
11388
7656
2228
5190
5771
5579
8940
7168
8203
4960
356
11731
5950
7322
9837
837
7091
3817
7495
2006
8347
6191
9441
2362
5011
9115
8642
4007
2899
1890
9594
157
10840
8134
10266
1441
7067
2748
8947
8834
9414
9416
11440
5453
9890
9057
1963
5354
4216
5900
6377
9320
7630
4313
9413
5795
4679
3678
1543
5814
7258
2268
10410
4004
8651
6351
6820
9243
603
3949
3434
8410
393
10803
9585
5111
9815
10496
10691
11322
10287
3353
5235
181
2277
8449
9624
10361
3599
8115
7341
7134
401
3128
1631
6159
5683
3393
8972
8464
5120
11678
5803
8851
3798
5537
8944
10629
10306
5809
4672
5955
2067
11404
4819
1599
6349
1385
9014
11297
6084
1405
809
8698
2029
6347
2650
8405
3024
11700
9205
4702
1702
4193
61
3464
4791
9767
2094
4802
9972
1880
3378
3790
7289
10216
7885
2287
6552
8809
5210
4342
7928
10119
664
2906
1046
5369
2404
5050
9262
1568
462
743
222
10264
5728
8950
625
11523
8099
2188
2177
6688
9463
5609
6848
438
8668
9300
353
8380
456
3593
6421
239
7596
10384
11356
5931
5749
7698
10598
10726
10511
1018
6973
11057
1760
8723
10372
10020
1103
9691
7363
3445
4315
9734
10105
3063
6685
5399
2947
10823
10907
8513
11128
4414
10285
5639
9518
9936
4929
1034
2264
6597
4338
9216
10100
906
11300
9628
10633
10028
8122
10077
2286
11615
5035
11710
8367
5062
7749
7433
6375
2900
1721
5912
10696
3184
3527
1824
3080
6575
3023
4412
9512
1901
6119
3649
1918
6791
7399
1569
5550
347
1242
420
4561
8937
3782
5824
9621
4119
8518
10299
1031
3991
4682
10062
11496
7640
6096
763
10503
10919
10450
2484
1222
7300
2134
2423
6832
6448
10223
8076
6165
6117
4209
1575
509
9203
8602
8862
2304
7609
748
3746
11352
1259
3077
7828
4003
11382
9930
711
8889
10779
5239
7370
9396
1372
712
10828
3834
9326
3501
4822
4607
6109
3469
11272
1482
1489
104
9051
1794
5386
1821
2386
6311
11583
4170
1741
1658
212
8008
10414
5838
3058
323
11131
1097
10424
1359
334
4985
3110
3860
1613
9993
792
233
5497
5013
8860
209
10764
7945
5304
7012
8710
3570
11462
2413
8492
10739
4742
10577
11113
871
3429
1263
1618
10192
9530
10397
10631
7110
7864
1220
3431
1765
11150
2456
9694
7655
2001
1513
10626
2801
5664
6650
2523
4080
5790
9070
7553
6975
8750
3078
9854
5003
7624
4012
10162
2110
6429
2375
11473
11433
3703
4123
11552
3668
10004
6758
3522
617
4397
5157
11540
7988
8303
2652
9513
10337
745
11575
2004
7197
9260
11290
3047
11789
10464
1336
8128
4975
7966
9210
9488
4608
3285
7369
6790
8317
1313
4374
11459
4029
2903
8538
6830
3333
9481
4830
4262
3053
9116
976
5689
5778
653
11357
2269
5176
10345
4480
9173
11324
11802
5340
7284
9420
11087
611
10495
2114
5829
4515
5768
7265
3166
2602
6536
511
8265
6110
3015
4156
8332
5502
8816
9450
520
8323
4484
6739
8387
7652
7366
9619
9877
11706
8157
9567
1109
8784
7111
1038
8349
20
7558
4147
5872
6248
4609
934
9455
7277
9599
394
5914
1737
2165
561
3069
11095
10891
9380
1162
6422
4328
1729
1527
4838
842
2930
6735
58
5147
2865
10588
9043
2291
6693
83
5138
6969
1945
1649
5709
8314
2724
9147
5382
414
11222
2450
6518
8777
4075
5743
7772
8294
11679
11231
2907
8511
6414
3538
2133
1897
7434
8136
11046
6245
9162
11490
7729
1817
11535
1937
337
2335
6890
2072
10855
1726
9950
1047
5118
8634
2815
4718
9486
2320
6624
10686
4981
3386
5384
766
2861
5640
4477
1144
9744
9658
2510
5492
2273
8091
4091
5924
7463
8990
102
1989
6178
7439
7865
828
9211
1672
5758
4291
8061
11443
2856
4584
11265
4339
2275
4999
9683
4708
2045
6556
10212
4614
1295
9750
591
4104
221
7678
11192
6888
6200
858
10614
4833
10560
6551
841
9964
11218
5494
9426
994
10075
6146
1554
4533
7020
5412
11127
9058
10842
4053
2848
11502
9665
2513
10978
1463
10323
6382
4551
2835
4301
6618
2233
3050
9529
10226
400
6860
9878
7153
6018
7972
6175
10669
1023
3298
9144
4320
59
9741
9697
9918
9505
6576
1328
10316
3351
4843
4031
3279
10068
10071
5090
7779
1550
1009
5687
2554
6877
1612
2737
3455
5268
8390
8207
648
5883
2862
879
4463
4687
2303
10092
1624
550
6734
10101
6505
4706
7713
5957
211
11362
9378
9480
3232
6243
6466
3543
68
1438
2515
2868
7932
6385
9919
696
8598
6499
7797
8885
10517
1314
6586
4058
5396
9493
9201
12
5967
818
11110
7964
1346
10218
453
8489
11448
1656
3457
4122
10317
9298
37
11369
4860
1043
2908
6315
940
4190
9452
6436
9363
6844
4974
6995
6955
538
5312
3902
1400
5712
10526
30
2267
10800
7784
5511
3677
2470
10743
4601
4411
5049
5666
5286
1092
266
1108
9049
10688
3229
11549
7238
5082
3319
6590
1739
230
6449
898
5598
6929
7895
3844
6213
8903
8846
1563
3894
4237
3071
9281
11577
7859
3433
5597
9366
10563
10955
9253
6339
6074
10133
11518
3573
4634
9009
5847
3375
2840
7386
5065
4165
10256
9440
3997
7671
10887
3614
2213
833
8626
5636
9432
8223
2111
7077
8965
10706
1743
9861
5516
5277
4382
10986
8882
11576
2543
930
8685
1197
10351
7502
355
1429
9528
3095
2991
7118
8366
8552
1153
7440
332
7044
2769
10890
1598
10857
8345
8457
964
6537
5766
10701
2698
4467
10920
1483
1395
8628
6723
3281
10533
1426
2544
9589
5440
9568
2885
5858
7664
3070
2178
7897
7844
1057
7484
11158
4759
9431
2968
7267
3123
9478
1544
5992
11234
8483
7767
9089
724
7782
7344
7716
1127
4902
11328
6772
1586
5264
11244
9393
1561
5321
10079
7934
7764
6785
4884
7717
11453
5910
1808
2889
4385
6372
10704
10504
6577
3287
9915
6699
9286
2605
5667
1392
9944
10211
752
10334
3737
11555
5605
10081
3215
8925
11498
10086
