231
233
677
470
425
134
65
263
410
294
520
521
257
530
599
552
600
689
229
674
77
147
150
478
482
536
189
72
71
53
120
690
474
516
692
605
583
296
330
343
353
581
447
440
34
35
36
462
461
361
37
389
378
352
297
615
186
97
608
681
678
679
454
176
292
515
267
375
381
115
315
90
31
370
395
236
333
156
260
137
122
124
143
416
417
418
419
420
565
493
2
672
385
570
551
613
16
79
587
208
241
332
342
164
334
405
280
62
117
126
354
47
224
226
157
309
165
328
321
322
555
15
155
422
506
320
543
371
675
411
466
512
127
535
180
198
220
221
254
484
485
349
276
295
246
651
243
149
467
606
496
52
537
517
589
242
480
475
18
1
404
403
629
193
33
29
78
658
576
688
694
586
67
654
431
335
336
432
458
477
237
503
255
501
109
206
305
61
161
519
11
465
499
637
683
684
4
685
673
318
534
367
104
638
299
545
75
468
197
163
133
345
348
80
648
650
5
6
659
661
662
547
548
549
550
686
697
698
699
610
645
646
647
270
118
362
205
140
141
142
282
393
356
89
158
443
625
669
39
216
32
293
235
230
232
234
204
553
457
618
557
558
559
660
601
602
603
604
643
84
63
244
631
92
217
249
695
311
377
281
25
26
27
28
510
459
642
251
13
138
609
96
148
10
682
390
369
441
434
162
275
262
652
497
595
248
636
542
514
479
573
504
460
258
451
687
633
620
607
253
649
406
433
274
179
304
291
627
628
579
580
611
704
665
398
132
538
66
298
49
486
222
58
188
640
693
670
450
264
123
240
319
91
344
42
626
415
505
287
187
171
107
174
173
175
215
265
266
85
192
106
575
245
396
691
43
653
167
380
507
98
473
464
136
3
676
219
177
48
74
209
571
387
529
196
261
616
7
105
588
69
639
218
284
285
94
95
632
93
38
523
99
302
667
373
119
394
374
680
300
317
324
323
382
252
108
272
279
223
532
45
554
483
561
641
271
546
666
429
414
430
428
125
308
399
400
495
116
12
19
424
481
238
563
619
70
502
494
528
14
621
522
524
351
383
30
437
438
439
86
700
701
584
622
327
273
526
100
101
102
103
612
239
130
338
444
445
446
448
449
166
9
564
556
212
213
214
423
518
590
313
68
490
491
498
594
635
562
51
513
290
227
436
567
544
289
168
702
386
268
664
392
128
139
340
169
341
250
471
525
539
20
88
76
469
54
170
44
306
585
452
568
17
112
113
110
182
145
488
384
200
696
397
593
540
541
286
