503
67
842
643
240
543
432
570
168
196
423
575
1149
1256
1148
49
899
115
1134
1111
78
471
237
289
316
941
43
1043
65
309
818
887
1048
892
823
1323
1031
365
551
1277
756
265
596
231
1289
970
277
297
1027
873
785
693
1252
553
218
578
346
184
1312
51
1253
1113
965
862
802
32
617
477
411
926
275
649
549
344
76
605
259
1361
1070
367
737
1092
754
270
634
233
63
175
413
247
435
163
44
1315
1073
527
720
588
901
486
1243
192
1114
665
807
296
573
1185
101
428
774
1282
522
312
704
953
718
678
839
1318
1364
1198
700
628
528
934
1235
1055
481
1350
208
1248
809
811
514
925
306
994
58
254
1304
23
107
780
1174
945
727
869
342
1178
846
1124
943
942
1049
1085
952
1158
81
529
1075
1358
599
506
1175
661
1023
1040
783
810
552
497
770
583
939
581
1024
198
654
1365
874
630
721
594
380
893
538
990
1254
650
1181
597
56
1080
458
1032
1268
439
636
548
86
123
1306
410
590
1359
1106
1362
631
914
425
724
128
433
1217
239
622
113
948
1166
174
322
1328
244
1083
1201
966
1199
29
220
1285
940
427
1101
31
494
210
889
989
1347
817
221
629
1214
394
70
937
624
993
261
832
582
339
1195
1164
711
429
48
155
1371
1096
864
1046
946
361
1208
673
930
1009
358
1265
1084
1102
303
482
451
532
243
370
1216
813
1305
462
743
54
585
777
109
924
566
1232
1222
796
591
286
1320
618
1225
447
464
170
919
778
209
363
140
968
910
828
371
199
422
350
944
10
147
415
282
298
806
291
493
909
898
430
1368
677
453
331
1333
135
351
1229
613
855
554
917
158
1190
461
852
1193
390
438
485
705
1030
1077
353
96
420
354
1233
513
156
534
708
382
374
1037
479
1139
542
1348
377
308
664
535
1137
858
679
666
352
124
178
287
1325
1142
294
923
405
672
824
997
88
782
933
558
1273
793
589
845
741
290
285
707
1303
490
996
266
327
348
1145
59
969
1329
1057
949
903
936
888
715
333
1203
1309
676
730
788
1100
1299
722
1172
398
847
619
328
100
318
1061
83
129
803
12
1226
171
614
1261
260
691
706
695
1131
723
332
355
138
381
292
1118
598
141
710
736
1099
139
1205
1103
224
812
274
323
478
409
325
615
299
744
669
567
1276
1271
621
798
843
988
626
974
1132
1224
978
620
875
799
1191
467
321
5
1133
844
1286
1026
39
30
242
938
987
136
310
1182
999
755
1356
787
1366
571
3
111
1251
781
1187
885
1050
716
986
376
314
442
319
680
670
424
752
1058
1121
526
227
602
746
826
584
66
882
921
211
865
872
536
900
560
1186
1236
861
772
1000
1237
879
1284
1331
273
610
362
2
6
311
561
1013
1357
215
579
27
967
1197
572
765
1279
714
256
25
336
47
106
349
55
682
213
120
816
638
72
660
1230
45
1018
523
731
904
745
533
465
1140
1176
814
60
92
859
194
280
359
519
1339
651
182
110
916
771
204
894
52
545
1120
767
1296
1375
183
137
819
80
1116
105
541
1144
480
165
248
307
1035
1220
334
97
668
1372
102
982
890
1228
739
1245
302
1161
1127
388
235
1146
922
305
1001
1115
249
984
964
71
94
712
33
998
448
445
1052
759
1159
77
84
701
82
457
1335
958
436
644
762
1098
404
1200
1022
1151
104
609
1090
1074
62
281
1053
238
223
145
1283
373
118
1244
250
1324
9
449
255
593
389
808
1207
557
460
1336
144
501
1041
1270
539
177
1326
697
792
1065
1110
1319
1369
7
1257
667
1068
357
329
912
1125
983
258
1345
372
1006
881
142
525
1047
849
1342
1308
440
531
947
226
1034
228
1234
212
79
148
1360
671
1063
915
764
133
1015
408
867
507
1088
504
1168
347
386
0
360
1300
475
1179
1008
1370
977
906
1260
172
450
125
1066
530
713
90
1330
181
850
414
251
69
131
300
1173
326
1344
1313
499
857
364
495
1280
338
421
164
28
516
193
820
1247
1011
169
918
652
173
518
1117
908
491
73
1281
587
1005
657
234
732
214
162
132
1007
1107
1310
185
41
692
108
38
568
838
1165
1322
483
468
24
932
1036
976
1163
366
505
1210
383
734
717
1223
454
264
985
232
444
395
963
176
18
1206
1209
341
886
595
61
272
1112
1291
278
1067
694
368
1266
36
735
1221
662
931
1039
547
1097
688
738
191
456
868
393
675
760
1354
728
419
375
412
74
1287
1079
500
825
195
616
114
417
601
604
1317
89
848
1054
1316
753
498
1087
1321
1093
1091
11
396
979
555
42
841
167
416
576
834
267
1042
426
690
544
1288
674
689
1010
1213
851
1346
159
895
1094
257
1263
335
1292
15
515
324
768
607
1211
1105
1218
905
222
179
1004
99
836
757
521
761
22
356
733
1141
1274
611
1170
340
431
1160
217
911
203
1108
1338
1119
93
1033
68
1202
973
284
696
85
434
1029
153
75
962
1196
1374
789
580
446
703
188
271
1157
884
236
487
1327
