8156
8988
11253
744
8372
10452
3669
4127
11287
11420
5411
6208
1512
6867
10928
9632
11774
4740
5553
10666
9199
9553
19
6167
3547
8585
2932
8951
8765
4442
2360
613
5221
8836
1408
3971
10292
7281
1010
5641
11513
10547
9103
10795
5146
8500
10536
850
3372
5379
11741
6931
1418
3745
10829
1432
1022
647
5731
1142
6322
5890
5292
9368
2319
1747
533
3615
5932
11271
7856
3499
8559
970
10379
3994
4580
5397
7185
8852
6601
8545
149
1650
6412
8370
6407
1275
11485
4901
396
6847
3857
8462
7808
2288
8327
6282
4747
7562
3852
3827
6438
6271
4083
9642
1323
4872
2231
11136
10107
3219
2751
5363
5322
4303
9350
3116
8814
8451
7132
9334
8104
4110
6713
9402
7282
3448
7962
3508
6637
6177
8351
9536
9336
7216
5652
6849
8879
4828
7998
7053
5727
2174
3027
8343
10018
9257
7039
3919
101
8267
8719
900
3781
5860
9597
7148
8909
4299
5756
862
3131
99
6106
385
429
1643
2714
9997
5769
7383
6504
9022
6398
7816
8695
11565
4513
11471
1662
6690
10859
6562
1670
483
11517
119
10549
6884
10270
5211
11291
5414
5508
7191
10080
7781
5202
10356
9899
10798
9143
3487
9423
5270
6459
4782
5963
914
1068
8805
8140
2216
7499
6545
3111
7750
8918
2412
4845
11701
7582
4046
4786
8715
1355
9941
9675
7887
7853
3780
11650
461
1470
2109
3425
2406
8606
3037
4192
6435
3065
304
7696
2184
7615
7733
8568
200
10103
3021
4850
379
5556
11699
2859
6634
9247
10543
2252
5638
4447
47
10850
6880
6120
5632
11084
1671
624
2609
2020
11538
9711
9387
9197
11766
245
5938
5204
7465
1720
2088
3995
5130
8064
4617
9947
6346
2102
3550
958
4771
10237
3784
11669
2142
10953
518
9191
6794
3526
10544
3379
5180
5061
9623
6333
3234
6425
8486
5580
6341
9102
11733
1277
3837
1634
2956
1320
1433
9747
8124
9520
4381
1496
2453
5076
10672
468
14
5467
8000
7722
9639
2009
10841
3000
4639
487
1479
5015
9779
2754
11605
1219
8382
1383
8799
1744
5489
1953
6086
1166
9124
6543
8530
8379
2876
8485
7139
7601
8550
3148
8678
2245
9187
5426
3562
5361
11622
4060
7438
50
8271
10165
9239
7963
9749
95
6554
2417
8968
3297
10354
4700
3132
9884
700
1053
2742
3858
7189
218
214
4401
2189
7607
10408
1617
11101
2688
6193
3352
7070
8727
2564
932
1178
9490
9565
1121
9952
5303
8023
6821
10649
967
573
10394
11072
357
3207
3328
651
6227
6440
856
11759
5961
9251
7254
6357
8052
10131
10874
2732
9449
3698
4610
10754
3130
7271
11775
3546
1002
6621
7174
554
2664
8934
4995
7580
9088
1261
8899
3387
8049
3846
9926
3813
9189
5359
3646
6997
7690
5159
7899
10031
2980
7868
7337
4189
4870
11566
8359
11068
11335
424
1139
8309
1579
3411
5700
8388
8127
6157
8278
6706
8926
7328
2982
9050
6520
6234
10117
9129
6754
10289
8432
6069
11593
7926
11402
1941
8355
6908
7458
5117
2473
6221
7257
4521
107
4832
2487
10441
4605
8250
7770
217
5173
6131
1851
8081
510
8774
3400
4716
10283
39
9055
3620
11281
1491
4695
6994
4129
9142
2218
7250
8869
3355
4863
346
7417
4201
6290
9638
7413
3898
9327
8537
4889
7100
10888
2221
4868
6330
811
8196
3708
177
8170
9383
4643
2214
3523
8819
457
5284
7613
668
749
1883
908
10234
9139
8324
7889
11662
1368
3886
7228
7108
4394
6482
4519
303
4921
9052
10851
4934
5288
210
3979
3931
7325
9987
2046
2057
4097
2858
3608
6925
11449
4202
2874
7579
7720
3870
6934
4793
9198
398
5943
3105
321
11432
6494
4466
11364
1730
764
1413
2802
5257
4812
4281
6083
9263
11785
2128
11468
8583
8368
3952
10595
9535
473
1175
1768
10297
2585
8725
4794
7836
2075
1501
7506
2150
3928
3689
2405
251
8270
673
8524
747
2495
1213
10630
1807
11100
6532
10684
2227
9370
2913
9985
11564
5859
4449
1786
6834
3031
1393
5804
8473
1981
2351
3465
3412
6715
9840
7414
2715
5617
4913
6062
8269
10510
1530
6730
1347
7881
4219
7324
562
10483
8747
2519
8456
9714
9902
3048
11292
8054
11201
9265
9894
10482
9406
3003
3643
2996
592
10242
1766
8055
4100
9967
180
9399
6032
5331
2614
33
3126
8079
8949
10440
2791
9133
2531
6098
11262
7454
7050
3704
3139
8768
7318
8177
9458
8635
7850
6697
5958
4977
3909
10095
1713
11742
9514
11500
839
10954
1217
9660
8169
9236
5224
11002
6380
1369
8742
10936
1457
9245
6444
3473
10836
2055
7608
11722
4698
9056
3222
11370
7200
10773
3822
3467
2085
11776
408
5484
6558
8709
4475
10984
3405
2019
6427
5027
3413
11666
9962
10396
2407
8534
9807
4454
2290
812
2536
3286
5053
3873
3887
10820
3853
6153
3578
3181
8871
2935
330
1035
4972
6216
1793
6348
5935
7567
5058
3693
8761
9862
10926
7142
2625
11190
4084
6211
3601
4269
7985
5799
7796
10550
3146
92
41
3742
5418
10819
2846
1006
6521
9798
5278
2629
2676
9671
7447
8584
1665
1614
3948
7794
5676
1983
4762
7540
4568
4851
7310
9389
8237
11413
10585
6909
7272
3753
6705
7566
85
1039
2392
135
9010
11638
3524
3838
11166
318
7233
9306
3247
3617
3891
7542
927
9980
1701
6912
6158
6762
2952
2777
5748
9933
8121
11773
11683
10010
2333
8450
7391
2507
1623
10737
6149
7037
2157
5635
9225
8923
2145
3334
11179
4030
6620
8334
8011
8066
9258
11126
3859
9787
10277
70
9909
5228
11012
7323
868
3038
2380
5886
2692
360
8441
5902
4923
1453
4024
8631
1950
3509
7573
7187
2701
6914
1078
1626
10958
5333
8298
8722
5730
7259
5389
6302
7675
7660
10804
4043
7507
2021
5259
7809
4271
5028
6182
11263
7508
11724
1511
10443
8261
2039
465
3013
11157
5547
8991
248
11600
7840
434
1399
5273
4094
4885
10284
6464
2755
7075
10720
1516
1282
8404
2459
7535
6856
7474
6679
7549
3274
11814
5465
9733
3059
2620
11282
543
10925
8137
2069
5770
4779
7751
6769
11748
5044
2727
6162
3684
5262
733
1905
2012
4450
10184
1683
2344
7306
4918
6145
11780
5802
4105
8003
2201
6743
11160
2873
4064
7068
9659
4026
3025
902
7647
6118
4336
8883
4113
8764
1669
6822
1692
1935
2054
7971
9690
7626
1208
2929
10548
9237
5882
7824
2820
8025
10937
708
6244
4184
5787
4900
1157
8664
35
7976
3595
9023
2685
2471
10617
3370
428
11415
10125
6639
1430
1188
9896
2522
6489
2788
1791
10175
3422
10880
3264
3485
704
5718
8495
1402
2210
4877
608
5155
7103
10228
5979
1427
5994
8297
758
3369
2447
7346
11720
1805
399
3889
542
9724
9647
1414
6014
5398
8828
9953
2168
7442
5042
367
2124
7225
5826
4162
8108
7019
63
8193
7876
4436
4738
2675
2342
6682
1844
10373
11544
9534
3755
427
3652
2154
2127
5431
8542
3299
7338
6369
676
11652
9294
10574
11694
6592
4102
1839
5464
7702
1210
7247
11332
9889
740
0
8493
7565
2847
4343
3772
11810
4010
8603
4696
6307
1434
4829
4205
2337
4344
2215
4705
6778
5740
8371
5523
7890
3468
11687
216
8165
5350
2901
866
5106
2879
6428
7303
4982
9863
6275
5653
2628
11723
7308
3482
6273
4773
795
10896
1421
4191
9379
8158
2588
3761
6387
11329
10834
6961
4676
683
8242
5385
3418
577
11269
11009
2608
8658
4387
4345
761
3060
1688
11350
6782
7217
4317
8139
5692
9857
3975
9975
11629
6253
1595
2927
8644
9507
1740
8413
7658
4048
8274
1041
5168
2422
1655
173
169
8733
2390
8039
3724
1272
2995
960
8796
10853
8062
883
3616
8085
799
9901
6805
5282
9177
8187
11435
8536
4081
6850
6817
3002
3470
3650
2534
1160
3842
9482
4347
9293
6657
7760
586
3529
4847
2993
6249
1732
9522
7738
11240
2457
1147
11418
1608
6220
10274
10039
2910
8394
4404
9934
3088
1373
6223
2619
2455
10490
10021
6050
1498
103
9174
7769
2474
5441
4879
3544
5952
5186
4148
10922
4587
8911
5009
291
7801
3773
10751
8216
4077
4864
4536
5478
11674
6578
3187
7936
5589
4245
7637
2318
4403
7307
578
2357
4649
4376
3800
5098
5419
9390
8071
5099
6911
3068
9784
7379
621
1971
6152
8912
9713
1697
5339
3942
4743
265
6950
2753
4035
2540
1285
8376
4606
10025
3728
3251
3100
2108
11389
10694
1396
259
2254
1718
2389
1803
756
10243
10796
7042
10232
4099
6029
7095
8263
6720
694
10032
2517
5125
3399
2655
3101
5697
4353
8083
2760
7317
9596
4098
7646
10933
10046
6502
3955
9388
5128
3819
1237
5614
5576
2613
7879
8674
8048
6795
1783
4714
6636
10124
1904
11333
11355
3910
4746
3621
9606
9473
1061
5751
7590
1254
952
1602
9307
3694
1118
7234
9309
9008
8861
5566
11434
6486
1562
4874
4115
8520
10401
9917
2391
8431
3542
4448
6662
6840
1056
1146
5470
3263
2377
6013
3169
8
6951
3265
3488
5843
96
1459
6161
426
11273
4049
8185
3574
7745
5230
8829
5477
979
1042
6798
10481
8089
3094
2943
2301
7422
8094
6408
582
11460
5265
8251
6661
2452
3
10671
410
3963
9663
1896
3254
3660
6487
263
4950
439
3692
4597
9629
9221
1107
7060
10066
5169
88
2818
6497
2916
7635
4393
3785
274
1281
6983
9357
3946
9267
9974
10878
2167
2388
11487
4674
5613
6085
415
10565
3984
7320
10685
11149
10908
710
11745
5038
407
10758
9722
4352
8779
11648
9484
7268
7923
2483
2238
3721
1965
7007
8570
6786
8686
1523
7532
7585
2651
1110
9701
1406
9369
5092
11516
10749
4308
3290
5908
10065
3014
6775
10881
10939
10873
633
11476
3231
7113
3329
9758
5980
131
10992
455
9304
9422
10714
774
4890
311
5181
8358
1722
9016
469
8746
1350
9618
4265
8129
10780
247
993
736
5183
8689
1825
8807
6105
4028
563
4638
10143
4489
1576
2963
4993
2119
2372
11074
6125
9386
9756
4429
10451
79
2034
796
5928
5360
2439
6503
10567
3282
7001
8876
3098
5289
8423
10319
8881
333
3043
8398
9956
1084
5400
450
9026
10260
3284
293
1250
1145
4600
3706
5584
9569
7092
4439
8145
6203
6913
852
1494
9791
4215
1954
5719
3541
3585
4948
188
1123
7199
1934
6858
11808
5894
1984
7066
2144
9297
5595
8029
500
290
10029
7198
7516
5538
11360
5121
8403
5281
590
6870
11372
10506
6842
5654
2627
8022
9723
4907
4410
777
9705
299
10220
1090
1194
7942
9613
8614
532
8109
971
2680
4629
1113
11365
3160
1592
2270
7525
6206
6729
1082
2998
4574
3912
11005
7243
2813
11456
9332
6507
6512
5298
2807
8630
2691
2771
4954
11470
4040
46
5800
1149
10522
895
5990
7497
765
6123
7220
7708
7871
1923
10509
6391
3314
6130
10171
2919
4074
565
2684
9401
8826
11596
7213
1011
11804
7488
11617
7021
6247
3288
7334
8420
8425
10296
5034
1978
8908
6189
4093
11594
10023
3495
10723
8758
5736
3833
1345
1444
8572
8142
2239
8872
2516
6651
7886
1593
7299
8116
8147
5707
80
5272
2464
6475
921
335
4541
11147
1570
2087
7711
1572
8069
7925
4684
1964
11764
9128
1509
8257
2638
3989
4457
9572
3006
7825
1845
8304
111
3441
10952
472
3973
819
3125
1795
9404
11141
8268
7689
7612
11121
4789
9004
7834
10412
1183
31
7591
11676
6292
3602
1566
9814
6325
73
3540
5471
7883
4441
2183
9611
8328
3954
2420
8677
7798
4688
1111
7900
2465
5840
11014
11241
373
10599
4264
10121
10338
9230
4731
6760
4292
10487
3344
1193
45
4373
1201
11623
11109
11053
9883
1578
5773
10185
10620
4680
3118
1584
5706
10219
10091
10078
4767
6567
1864
6613
9125
10862
315
10130
2986
3582
10221
6343
9232
2631
5220
1472
9469
5885
5046
4418
6329
5665
5226
2036
9453
1351
1071
11055
11651
5279
4459
8892
4807
9810
8735
1594
4139
409
11501
6808
11090
9157
576
10430
4844
8975
5684
8917
5466
6987
713
4553
937
11039
1087
4207
7087
9824
7089
7810
3133
1454
5425
2232
2709
881
9193
1710
11560
4375
11058
8084
9485
5066
6861
2948
4924
10849
6433
11051
4365
6923
1597
9425
5561
3519
8531
3244
10659
1180
11474
10419
2576
11726
6779
5294
10761
4707
7884
9476
5517
4257
2759
10427
9892
1691
5805
123
6932
1952
5601
2864
4250
2271
3115
8047
7150
9044
8060
9856
5234
4504
9575
7960
1891
8694
6561
295
3143
7981
4224
2236
1785
11303
286
8101
1758
6663
1284
9706
5903
9978
10366
5817
7752
8516
2503
8688
549
3576
2340
4641
11289
3794
5267
3896
4474
4149
10690
4526
10420
4989
10860
10200
2909
4228
7670
5123
4395
9341
4407
5030
1303
7510
4549
10711
6384
4730
2328
10911
7172
10781
10658
9295
3034
9527
11048
9156
3194
9681
5236
7305
467
6001
6510
4604
106
3090
10435
10301
6300
411
8416
8284
9990
8075
6196
8624
4118
9577
9275
5680
3884
5549
11097
9343
9161
1862
10913
9809
10423
7242
5424
5023
29
4329
2973
9969
568
11338
9796
1245
5380
1458
9603
1835
316
108
10746
7631
7452
8887
8249
11557
6927
2527
4176
4295
3458
5344
6418
2678
4537
7149
2444
4880
7298
973
2442
4602
6673
5662
8181
10885
5739
1374
2894
6945
10750
5163
10
2974
7645
9725
9551
5711
3941
718
7695
4978
11598
735
11511
5735
2348
2140
6222
11667
909
4502
496
9025
5153
4618
6678
1206
4279
8059
6702
1195
8541
11257
3647
7911
5936
2611
7589
288
3671
3208
3492
8114
5297
388
836
3855
3011
7292
2325
5504
11684
6747
1112
2310
9887
9707
3210
2626
6800
267
4808
3447
8361
9456
3079
2957
10154
3635
6365
1379
9349
9315
416
8956
4111
1962
620
1703
6107
4957
2960
2615
6088
5091
5822
9081
1190
9003
7728
3921
10340
9002
5848
6101
1506
4685
11705
7038
8641
11378
11522
794
730
6939
8385
5964
9742
11610
1745
8902
8095
6114
11528
2589
1199
9533
8106
6417
5250
10507
1889
5113
11441
32
7800
6903
10282
9214
10529
8821
8463
7278
10831
6148
3315
5372
10246
8729
3424
4233
1486
605
11107
6814
1533
6717
8247
7169
3325
10073
1330
6393
957
3403
7316
6458
5503
11611
1660
1026
10527
4710
1247
655
623
8279
6392
2199
2582
4112
4253
10265
9037
6784
8741
11270
6321
11758
1746
11479
11715
9622
3705
76
9709
8484
7706
8042
10328
2260
1775
6134
93
3449
7930
4073
714
1076
6649
5199
10076
2015
1885
5323
5643
6742
1488
9421
8430
7603
4721
5461
4693
3107
1437
1233
185
5629
9392
4894
8131
1297
5948
4359
4246
8289
3082
7975
4055
6768
381
3016
1155
4963
8074
1728
2586
9620
2425
1253
10476
3017
6533
5837
5496
2498
4023
5821
2191
10673
11227
11189
3026
6180
10973
6594
530
3204
6277
11558
4862
5378
4398
6608
5225
10727
2855
144
10485
9190
6319
2492
5500
8280
9938
10054
5100
4453
4220
11108
788
6948
2673
3528
7949
2030
6237
7692
3206
7691
431
7201
1780
7248
3656
5349
349
3272
6495
42
7290
981
2312
9090
2954
9676
4952
9557
8019
11210
4766
7453
916
6252
6724
10224
1616
4367
9345
6480
7389
1833
4194
8544
6301
8521
782
8672
1156
1536
8440
6209
2826
8408
6186
3463
2401
10462
5993
5165
5527
2152
4333
4089
10889
10313
9164
8703
8600
9219
5761
10592
7819
11106
8748
7882
7347
10244
1731
9773
10632
11417
3045
1870
4768
2211
9954
6076
3707
10553
8875
3307
9261
2107
8974
8961
9419
10014
567
7528
5170
2367
9107
10259
7520
440
2018
9955
9287
9616
4438
10960
4226
5982
11236
1224
5610
2592
11545
5008
36
10866
3532
2249
11052
5514
6954
9085
10494
6631
10164
8509
11590
7775
8528
1360
8113
6691
486
3592
8063
2984
9353
9563
10358
637
7768
6113
3881
3404
3702
4047
11784
8904
3520
10980
167
1915
2816
8296
4092
7487
10309
5945
4914
801
2138
6883
2922
742
6057
11358
9270
6075
9988
11045
9875
8757
5328
3883
2478
715
11006
10392
6095
4337
9394
8587
2089
9266
8604
6755
3691
1834
6827
6005
9351
8618
3851
3944
6517
8024
2485
5427
5792
11668
6388
1886
23
9781
11258
1309
5616
789
3776
6753
11173
6700
2514
3613
4720
8312
8046
4415
10644
3914
1957
11280
5682
6632
2882
6044
9282
8888
9296
5317
11746
9329
5362
6896
7740
7120
10347
1226
4667
11739
3061
5006
3323
6886
7518
3717
1310
5920
8936
9035
6851
5129
6379
3238
1822
9864
1315
7759
5863
2315
3316
9316
2595
9407
1339
8690
738
965
252
10205
2098
872
9222
4754
8581
3437
11125
9684
8576
8638
3938
3312
9385
4867
5405
10198
7028
6080
6607
8163
8118
3305
3777
11586
447
6061
56
11541
3685
476
3461
6434
8778
4619
5438
3658
7517
7965
750
6874
4640
376
2458
9573
6143
4132
10402
6501
4772
11801
4770
2884
3688
2400
4622
3752
10534
6423
4810
11255
7469
9248
7505
10581
8856
227
5337
2317
3035
9188
5087
2648
1508
5762
11026
1684
499
9648
1699
1877
6045
513
5026
9870
9104
7685
3679
5364
11461
474
11170
10657
10875
9346
5833
6676
5071
480
10724
4653
2577
10693
9704
3295
6853
9112
6580
9604
7375
10742
1349
3233
7793
2992
8759
11717
8217
1606
10497
2762
10327
2955
1659
11499
1446
6037
1020
705
11770
1866
4598
10768
5149
2122
2574
9552
1921
11140
5937
7727
1419
4881
3651
4899
2025
594
1558
9906
7947
10570
4366
5844
2058
9489
10653
6455
4532
11323
3421
9039
3349
3710
11399
6845
6756
535
9305
292
2836
4341
2870
10163
5064
8336
4464
6187
5032
1318
7371
3958
6192
5491
9994
6386
5421
6270
11388
7656
2228
5190
5771
5579
8940
7168
8203
4960
356
11731
5950
7322
9837
837
7091
3817
7495
2006
8347
6191
9441
2362
5011
9115
8642
4007
2899
1890
9594
157
10840
8134
10266
1441
7067
2748
8947
8834
9414
9416
11440
5453
9890
9057
1963
5354
4216
5900
6377
9320
7630
4313
9413
5795
4679
3678
1543
5814
7258
2268
10410
4004
8651
6351
6820
9243
603
3949
3434
8410
393
10803
9585
5111
9815
10496
10691
11322
10287
3353
5235
181
2277
8449
9624
10361
3599
8115
7341
7134
401
3128
1631
6159
5683
3393
8972
8464
5120
11678
5803
8851
3798
5537
8944
10629
10306
5809
4672
5955
2067
11404
4819
1599
6349
1385
9014
11297
6084
1405
809
8698
2029
6347
2650
8405
3024
11700
9205
4702
1702
4193
61
3464
4791
9767
2094
4802
9972
1880
3378
3790
7289
10216
7885
2287
6552
8809
5210
4342
7928
10119
664
2906
1046
5369
2404
5050
9262
1568
462
743
222
10264
5728
8950
625
11523
8099
2188
2177
6688
9463
5609
6848
438
8668
9300
353
8380
456
3593
6421
239
7596
10384
11356
5931
5749
7698
10598
10726
10511
1018
6973
11057
1760
8723
10372
10020
1103
9691
7363
3445
4315
9734
10105
3063
6685
5399
2947
10823
10907
8513
11128
4414
10285
5639
9518
9936
4929
1034
2264
6597
4338
9216
10100
906
11300
9628
10633
10028
8122
10077
2286
11615
5035
11710
8367
5062
7749
7433
6375
2900
1721
5912
10696
3184
3527
1824
3080
6575
3023
4412
9512
1901
6119
3649
1918
6791
7399
1569
5550
347
1242
420
4561
8937
3782
5824
9621
4119
8518
10299
1031
3991
4682
10062
11496
7640
6096
763
10503
10919
10450
2484
1222
7300
2134
2423
6832
6448
10223
8076
6165
6117
4209
1575
509
9203
8602
8862
2304
7609
748
3746
11352
1259
3077
7828
4003
11382
9930
711
8889
10779
5239
7370
9396
1372
712
10828
3834
9326
3501
4822
4607
6109
3469
11272
1482
1489
104
9051
1794
5386
1821
2386
6311
11583
4170
1741
1658
212
8008
10414
5838
3058
323
11131
1097
10424
1359
334
4985
3110
3860
1613
9993
792
233
5497
5013
8860
209
10764
7945
5304
7012
8710
3570
11462
2413
8492
10739
4742
10577
11113
871
3429
1263
1618
10192
9530
10397
10631
7110
7864
1220
3431
1765
11150
2456
9694
7655
2001
1513
10626
2801
5664
6650
2523
4080
5790
9070
7553
6975
8750
3078
9854
5003
7624
4012
10162
2110
6429
2375
11473
11433
3703
4123
11552
3668
10004
6758
3522
617
4397
5157
11540
7988
8303
2652
9513
10337
745
11575
2004
7197
9260
11290
3047
11789
10464
1336
8128
4975
7966
9210
9488
4608
3285
7369
6790
8317
1313
4374
11459
4029
2903
8538
6830
3333
9481
4830
4262
3053
9116
976
5689
5778
653
11357
2269
5176
10345
4480
9173
11324
11802
5340
7284
9420
11087
611
10495
2114
5829
4515
5768
7265
3166
2602
6536
511
8265
6110
3015
4156
8332
5502
8816
9450
520
8323
4484
6739
8387
7652
7366
9619
9877
11706
8157
9567
1109
8784
7111
1038
8349
20
7558
4147
5872
6248
4609
934
9455
7277
9599
394
5914
1737
2165
561
3069
11095
10891
9380
1162
6422
4328
1729
1527
4838
842
2930
6735
58
5147
2865
10588
9043
2291
6693
83
5138
6969
1945
1649
5709
8314
2724
9147
5382
414
11222
2450
6518
8777
4075
5743
7772
8294
11679
11231
2907
8511
6414
3538
2133
1897
7434
8136
11046
6245
9162
11490
7729
1817
11535
1937
337
2335
6890
2072
10855
1726
9950
1047
5118
8634
2815
4718
9486
2320
6624
10686
4981
3386
5384
766
2861
5640
4477
1144
9744
9658
2510
5492
2273
8091
4091
5924
7463
8990
102
1989
6178
7439
7865
828
9211
1672
5758
4291
8061
11443
2856
4584
11265
4339
2275
4999
9683
4708
2045
6556
10212
4614
1295
9750
591
4104
221
7678
11192
6888
6200
858
10614
4833
10560
6551
841
9964
11218
5494
9426
994
10075
6146
1554
4533
7020
5412
11127
9058
10842
4053
2848
11502
9665
2513
10978
1463
10323
6382
4551
2835
4301
6618
2233
3050
9529
10226
400
6860
9878
7153
6018
7972
6175
10669
1023
3298
9144
4320
59
9741
9697
9918
9505
6576
1328
10316
3351
4843
4031
3279
10068
10071
5090
7779
1550
1009
5687
2554
6877
1612
2737
3455
5268
8390
8207
648
5883
2862
879
4463
4687
2303
10092
1624
550
6734
10101
6505
4706
7713
5957
211
11362
9378
9480
3232
6243
6466
3543
68
1438
2515
2868
7932
6385
9919
696
8598
6499
7797
8885
10517
1314
6586
4058
5396
9493
9201
12
5967
818
11110
7964
1346
10218
453
8489
11448
1656
3457
4122
10317
9298
37
11369
4860
1043
2908
6315
940
4190
9452
6436
9363
6844
4974
6995
6955
538
5312
3902
1400
5712
10526
30
2267
10800
7784
5511
3677
2470
10743
4601
4411
5049
5666
5286
1092
266
1108
9049
10688
3229
11549
7238
5082
3319
6590
1739
230
6449
898
5598
6929
7895
3844
6213
8903
8846
1563
3894
4237
3071
9281
11577
7859
3433
5597
9366
10563
10955
9253
6339
6074
10133
11518
3573
4634
9009
5847
3375
2840
7386
5065
4165
10256
9440
3997
7671
10887
3614
2213
833
8626
5636
9432
8223
2111
7077
8965
10706
1743
9861
5516
5277
4382
10986
8882
11576
2543
930
8685
1197
10351
7502
355
1429
9528
3095
2991
7118
8366
8552
1153
7440
332
7044
2769
10890
1598
10857
8345
8457
964
6537
5766
10701
2698
4467
10920
1483
1395
8628
6723
3281
10533
1426
2544
9589
5440
9568
2885
5858
7664
3070
2178
7897
7844
1057
7484
11158
4759
9431
2968
7267
3123
9478
1544
5992
11234
8483
7767
9089
724
7782
7344
7716
1127
4902
11328
6772
1586
5264
11244
9393
1561
5321
10079
7934
7764
6785
4884
7717
11453
5910
1808
2889
4385
6372
10704
10504
6577
3287
9915
6699
9286
2605
5667
1392
9944
10211
752
10334
3737
11555
5605
10081
3215
8925
11498
10086
1777
17
1770
1888
11120
1642
10061
7276
2316
3022
5563
132
7335
8897
3012
10777
4919
10158
9462
1095
5020
7820
4217
10294
6978
527
10428
3680
2002
5332
3872
168
3771
8253
5196
11361
7978
1919
3154
701
11736
4096
4635
4392
5862
6415
7008
9365
2766
7592
772
1298
280
3559
7428
10508
1352
2926
8300
9195
1287
4128
9873
9679
4816
5688
7893
2013
8459
6824
5022
6454
11422
5825
7176
2147
5377
5786
3033
9040
7387
6030
449
4238
7093
7627
6210
11796
6312
8660
810
5218
10043
7602
10151
6023
2073
8241
8683
885
1477
1790
5070
2008
10703
682
3895
4783
5857
4671
57
8102
2399
5899
6535
1468
1416
6781
2358
6669
4483
10067
11216
3869
11327
9483
4256
8342
9314
1055
2281
8625
10892
10670
1075
1115
3936
3533
6571
460
3032
10521
1452
2149
319
1922
8222
10493
5171
9545
6967
2129
4420
5861
7393
1052
5582
4067
1456
11672
361
11655
3145
11368
8661
7410
8240
11602
7085
540
10000
9605
10661
754
9583
2003
2542
11589
10307
5025
100
9961
601
10532
7699
6965
1044
11782
1557
1487
10856
10825
2115
8330
618
4722
8645
3396
1600
8045
9601
1615
1752
8997
2083
4991
8494
6957
7847
9715
675
2545
9833
3999
11217
11709
11117
3609
9272
3787
2225
6839
5650
1126
5261
11233
2441
1322
1603
4210
9217
10169
4065
8721
11042
8401
9931
4071
1507
1559
6081
4288
11527
9635
4842
1836
1354
8593
8034
10417
7636
4032
6550
10628
10545
7283
2251
1025
10678
9140
9731
5714
3397
313
11334
5572
6959
10833
7639
5079
2970
5152
6478
3885
11347
9134
4792
8471
4335
4826
8898
7478
9250
1840
10731
5909
3673
5024
11786
3320
2272
4254
847
4959
7444
9186
5526
11713
1417
7210
3848
604
5651
2078
9408
2311
6070
1982
199
485
3270
2823
3245
7952
9574
3749
7252
10377
10418
2794
4540
8093
8178
524
947
9228
9376
1280
122
4419
10371
2302
10656
8900
1005
3460
7877
8868
10609
3055
3566
4417
2132
10619
8143
5888
229
5981
4001
10786
8305
10305
3007
7152
4221
6865
6389
4724
2750
8910
4898
2944
11536
2718
9136
6698
5434
5851
6137
4161
10064
9813
9433
9726
6051
10368
10460
9640
1017
10934
10972
1928
350
5871
11035
10060
7163
5646
7076
564
1582
2175
10194
7563
3933
2707
11665
5532
3535
8929
9082
6568
3739
9252
821
2063
7795
81
8525
2697
831
3826
9375
2833
7477
10974
6695
48
10643
4562
6750
9048
9893
9271
4095
2689
5481
6921
7402
2373
7080
2758
8855
6338
9973
5156
3880
7459
4630
10835
9095
6260
3945
11571
2164
2886
11194
8558
8166
9224
8718
172
639
6286
9012
1143
8517
6918
9891
1832
8993
11180
3686
8979
11646
5785
7107
834
2486
8849
5519
11658
5306
10411
6572
65
5019
8072
7903
2024
5996
354
9702
8617
9582
5775
6053
4665
3127
4896
309
4509
9027
5513
4354
8200
10899
7743
4525
2583
11654
2770
11298
7931
5524
3209
8824
3905
6041
5479
6008
2379
8252
6664
4169
5702
3428
4421
1101
5853
11004
11264
8184
10152
4140
3557
6658
118
2022
6400
4560
10304
5358
8499
4681
5095
4273
5896
87
6011
3382
11772
403
3350
9838
9045
10332
2241
8443
9209
1027
11465
5729
2436
7802
1278
9278
10682
1425
8144
1502
11509
10115
9686
10134
678
10387
6179
11612
5522
1070
4949
2480
9818
3392
1099
6654
9772
418
11366
7261
1947
3336
2299
6363
6366
208
7051
5746
5144
528
779
722
6866
1860
10013
11293
10815
10710
1992
2332
7211
7466
5493
3459
4755
5227
6522
8446
4518
5114
9844
257
9821
8952
11640
10718
8444
3625
702
3189
503
10413
7918
8798
2248
372
4052
3937
11688
4076
997
4332
1176
11444
551
4372
3497
10625
7677
11178
8620
7541
10702
9729
8028
693
2533
3443
982
4984
11119
4222
91
2266
8480
6962
261
3337
7279
5627
6431
445
3555
2194
9740
10932
2867
2526
7534
5219
9612
1168
4144
84
3149
6194
880
6529
5302
1467
8649
6726
6569
4326
4044
4137
3039
10449
4871
579
8299
10530
6232
9311
7894
4157
5608
413
402
4428
2084
3057
8859
164
10537
4302
11198
9745
3317
9475
3934
7663
1334
9525
753
3064
706
8014
4573
5357
3151
3799
4022
1074
7633
3438
6887
7785
7146
2429
246
3815
5338
3632
7586
2262
2246
835
432
4969
1173
5325
4656
10189
10455
9515
11559
8090
4962
9727
3407
2729
11695
433
5145
10538
10734
6825
11036
11412
8835
4002
7501
1332
7571
9696
5151
1443
10113
6940
8138
9845
7680
9338
2569
8469
4277
3666
5620
2446
8827
3657
9541
3172
1223
5391
10349
544
1204
7360
5893
10752
2637
11438
8176
9826
6004
10295
877
9591
196
11514
3383
4379
8141
8478
2997
10794
2571
5501
10187
11070
11313
4711
4163
11086
8183
8891
2682
9801
2508
6920
1510
11220
10448
1244
5559
7600
10409
4121
8575
6818
9149
6092
254
8588
4511
6500
9753
759
654
7078
3401
1420
3044
2830
7822
328
253
5677
4377
3019
3029
2636
7065
6298
3018
2945
3659
8377
6843
5723
2663
5480
1362
10207
3481
11377
8673
10005
4983
7839
2880
3381
1302
5865
4836
7765
9783
5577
10141
942
3235
3257
7632
8760
176
435
11304
308
1565
3964
7872
9802
10365
5674
9672
595
5140
4625
7845
9820
2623
4572
8977
10806
231
179
737
11353
8665
7180
5820
7194
6188
1321
1995
5965
8543
800
8962
7974
6926
69
6127
8985
1680
377
1469
2603
4181
10383
4505
4230
3091
2726
477
1329
2283
3732
11393
751
5721
6826
873
7301
7244
4564
1545
739
10109
2683
10170
8745
7551
3518
7354
2354
9970
11767
773
10624
10407
9356
641
9059
5544
11553
7367
4309
865
7025
11301
6902
11681
6935
10557
7726
962
8776
7753
8288
5195
3309
2166
363
3723
2825
3597
4726
546
2940
471
1641
6526
3338
5335
1172
6703
5007
7991
8928
9559
7719
10968
10099
1410
6761
9364
5206
8803
2694
815
2131
1797
4575
3122
6201
4275
10929
7766
6355
10007
7015
237
1532
11123
5365
3410
2831
10756
1535
3879
6453
1299
11664
8460
1480
2793
6810
11554
2329
6214
8578
6472
11079
3661
555
4825
1163
6991
4715
397
9192
7407
10390
5969
7376
9778
723
300
9922
6022
4294
9150
4185
6077
5200
11616
3142
5763
3205
4955
4582
11078
11306
6323
6829
1152
1212
4503
9703
11463
8622
6765
10562
665
10648
642
11034
3767
4272
5271
786
2857
3202
6757
4187
8086
10388
4824
2905
4626
10074
996
5916
9249
9430
9526
156
11308
3085
8246
1552
5828
7181
3795
495
2321
9434
5245
151
5852
8994
8481
7995
1738
3001
10477
6984
6498
10639
2883
3720
8111
10072
5403
6470
7145
2276
4823
4704
4461
343
11628
4136
9677
5905
9213
2223
4196
7377
5174
8214
5081
6862
6258
10793
4734
6326
1465
4593
2234
7588
3903
8026
10943
8005
10126
8077
7063
4151
9538
2121
5216
5012
9113
5816
3161
2630
6835
10050
7628
10600
1203
9668
616
1926
3114
2641
10593
2562
5733
2728
5407
9384
2126
10575
9737
6485
6952
805
4694
5381
7536
3140
4280
10341
7821
9229
547
26
6956
3918
4486
8167
11112
1221
10708
2548
11185
437
6128
9995
1861
2699
8262
6508
2481
5603
9960
2706
7401
326
5135
2499
1004
5942
8786
4011
10564
534
7406
3960
585
9732
9794
10445
6020
7831
491
5371
6714
5545
11319
9283
3548
5985
1916
3185
5376
1910
10258
7522
1133
10772
11237
2518
8504
1317
4368
121
9065
2449
7676
6073
2601
1522
7649
2173
3283
4554
3605
10179
8857
6630
10713
3768
6666
8749
4038
3502
1407
4631
9172
6462
4935
6857
2579
10030
3269
11286
1867
11708
8191
2521
9471
1820
8523
51
3888
5187
8732
3577
4565
9728
5972
1858
10771
11475
4961
7033
6916
8498
10897
5198
10254
425
4284
7915
6108
228
9748
2741
5137
10330
5781
7515
2921
7958
9957
3653
6403
5747
1128
7130
2331
2208
9764
10513
7924
3153
10809
9269
8439
11346
4990
2374
1632
6792
2298
7073
4252
7219
2721
9036
8692
5880
7746
8773
7948
10137
5094
11386
11229
7578
7771
9609
2550
8291
9137
938
11730
10469
8670
11488
4852
2644
10322
3165
3639
8409
7464
2061
4645
6021
2812
11085
10199
10622
2549
8344
9769
9470
8539
4174
10339
1024
4848
6745
7584
1951
6998
351
9100
9285
4797
5459
3662
7058
4657
10168
3150
6025
4813
9554
8341
5143
2939
4510
1340
11073
1391
9836
7467
9182
6174
1583
1412
5767
10336
2256
8762
2212
2622
8171
5417
4938
8640
3624
5998
4267
10612
463
1754
6442
7396
5657
7049
378
3106
4803
1335
10393
11451
2716
7017
9053
7109
7523
6802
8999
1811
7013
6443
1894
8731
7533
7136
7315
1189
5194
11697
6604
5623
3454
7435
5611
11409
10063
8818
4613
3992
11493
1030
9015
2220
3774
8400
11400
1755
10359
10474
4327
10088
110
7669
8772
2917
1515
11161
10886
10698
9932
2263
8151
5875
10027
9913
893
1490
1850
7090
324
1215
2933
4689
8751
8490
11067
10845
11489
1129
6727
2918
3084
4588
4304
2795
5583
798
734
5703
2244
178
8192
8969
1174
8206
1831
11641
7195
9494
1781
3201
198
11423
4087
5193
548
3339
11145
8209
6390
9981
2532
2314
8739
8417
9743
7620
66
5127
4712
5214
3260
5033
2572
11738
8507
622
1681
787
3332
11663
7807
10331
3280
10732
10774
9842
5716
10213
515
478
9562
6875
8302
2647
11704
6740
7203
1033
6584
2598
8292
7852
6383
344
5521
9843
1871
9259
7018
3986
11348
2888
4623
4818
220
10854
10843
9830
6452
5720
6147
4016
10728
4248
10810
8285
10473
6067
1264
4241
7202
10736
6872
10844
11030
11645
2881
1677
11751
901
9038
2296
3402
11311
296
10374
4153
10985
27
6181
8756
3829
10642
3248
9362
11815
2580
6176
8496
7908
1370
11643
8960
10148
5551
6625
5254
681
10996
4775
5422
3159
8594
2987
4908
1882
11379
10269
1940
3296
3534
3729
490
1181
1375
5014
9716
9284
626
4758
2112
11686
5701
1767
10719
4180
8957
5835
1462
2887
11696
684
4539
4514
11345
9301
1366
3916
11582
2639
11177
5602
10668
7046
11043
2300
4787
2938
5659
8970
10225
7047
1979
3803
4534
6360
6071
10762
10582
8874
4800
2280
6225
5812
4469
5133
7229
998
4130
5266
10459
11587
1784
3182
10235
494
6255
9180
9653
2860
2038
4041
9073
2897
366
849
7293
7496
7814
6027
2653
3503
1541
5836
10472
322
2031
7359
8753
813
2528
11077
10118
10863
5274
1079
2226
9340
10789
7838
2705
8850
5960
1164
3261
5940
9166
1450
4229
3862
2936
11763
3917
5487
6876
10033
1723
8713
6310
4056
11235
2999
10655
1231
1514
2313
1451
8331
10057
10070
4321
7861
838
11711
6492
3899
10036
3567
10944
5452
3087
7572
10208
9822
4692
1714
4270
339
9403
4086
11207
9615
6897
588
3365
2670
5515
3589
34
28
2395
6280
6334
5506
7957
2170
7223
7791
889
3878
3322
11102
3514
7598
9852
5673
8873
3733
6605
11182
9006
4528
1654
11031
7209
223
10183
6112
6224
4239
1590
8295
3256
6496
7583
2181
7030
11769
6906
7224
8938
8825
4817
6733
6345
1209
7388
421
10329
1706
1158
2306
273
171
3956
5606
6964
4865
7500
3188
1725
10665
10290
1564
1782
843
11044
8794
904
3494
11427
8610
1547
2080
9033
8858
7412
3985
9447
7372
8422
8675
9682
4677
3820
5209
2646
10956
9061
7173
256
11268
4350
8346
6515
5923
2155
8637
10500
3715
4057
8653
10871
3622
5648
10959
3102
558
11317
8802
1436
507
5275
4472
1869
5663
7072
5930
9292
755
7623
4050
11597
3836
4386
6553
2118
11238
729
501
6072
643
6992
1539
8397
1211
8726
10770
672
4915
6066
3377
4476
5615
10679
1464
4745
10539
1192
3793
1872
3590
3158
9546
505
243
5678
506
9666
8813
8015
7614
8848
7023
1773
11599
7953
6899
9656
797
3618
2381
2829
7127
11010
10325
4633
312
746
3569
790
2476
6728
11019
2570
5753
7445
7969
8018
4355
2163
8682
8515
380
10753
1292
1912
8424
599
3892
4141
5540
1652
9377
9317
1893
1944
3395
7701
4362
11542
375
1966
3957
10364
4423
5351
5696
1243
7498
9532
7055
8198
7448
1471
3346
4522
2657
2853
4506
11197
10615
11548
4045
4062
5326
10827
8919
6746
4306
5139
6854
10172
9678
3990
1049
3823
7503
9468
2035
4039
7364
7297
11054
1972
11439
2099
1499
5205
3512
8287
652
170
4085
242
9330
5798
8013
4371
1644
5594
2756
7416
8890
7654
5231
2076
4103
11294
3996
4801
5968
9664
6885
7171
8211
10298
11075
6660
11626
5849
7826
11305
4661
4078
6054
10442
5974
640
1270
2778
11221
4932
6060
1985
3861
3480
1534
325
5764
2338
3980
8886
7237
4054
2237
5229
9021
4571
11424
5474
6671
864
10790
4942
8239
6010
7313
371
8488
7803
8030
9698
10291
8248
11592
9242
11396
7780
5830
2364
3213
5456
911
10681
10302
3789
8650
11314
5581
6461
8655
8276
5060
1423
11584
479
662
6291
10608
9602
2988
1119
2776
4535
10489
7811
11071
9770
9904
7182
5573
6135
5269
4427
9220
5247
6719
3981
8526
11248
2893
2669
3977
7405
279
11452
8788
8743
8973
5197
9487
1694
10591
5018
6133
3479
5554
4416
10998
4155
4883
5807
3809
11162
11011
9427
4296
10640
4683
9943
10778
7666
5593
2209
9324
8547
5402
7731
4563
184
6752
9867
4516
2350
553
1397
1384
6670
7754
5856
4903
297
443
8097
5215
9170
8215
2077
6017
4751
9445
2229
2842
2537
194
9797
11450
817
3367
6306
2578
1131
7757
5505
11467
11630
9145
320
1371
4042
8412
7235
907
305
3950
5529
6627
10498
8763
9966
9075
8360
9921
926
244
15
143
5983
2363
129
1161
11749
11570
11608
6560
7251
8700
5458
6672
5308
1876
2488
6681
4479
1182
2525
7538
1170
10263
2182
11275
6399
10389
8256
3371
11168
1859
6831
6712
11719
1878
6836
3588
7907
3121
387
1311
1032
9971
9717
7436
7222
4936
931
6958
4019
691
7460
5987
6364
1909
829
3498
2081
10523
11154
44
3939
7403
6463
4319
2965
3969
1187
10576
7471
9068
284
10480
6308
4159
3092
11187
4556
7968
6437
4323
7735
7492
3364
1404
3195
8027
10556
969
10252
3734
925
11219
10082
4725
7912
2851
10196
7288
5956
519
10471
9443
4471
8607
4348
10605
9923
3626
1789
9780
2059
8935
9322
4013
6006
1902
6215
4686
7837
4922
7348
7349
10594
75
2345
6447
7707
430
4586
5483
11504
8180
7309
6611
9644
9072
1553
5874
240
783
9825
3066
11525
977
4905
6264
11015
5695
2941
9927
10204
6648
10433
1620
5642
11806
2146
1801
2095
8701
7384
1357
9593
8730
11164
6725
7688
3565
11727
10363
9464
1609
3096
8354
2415
2017
2971
6424
4125
5846
5375
11579
11325
3246
124
1106
11033
9886
840
6394
9308
5649
10813
3341
598
2123
5512
8293
9303
9029
11064
11416
5999
2197
4051
1216
3362
2501
725
6930
978
808
10382
1475
8880
6606
7774
4906
8272
10667
4930
4542
3962
9176
2671
10692
1235
1225
1764
8468
7456
6759
7159
6596
3217
5737
287
7054
2966
3164
8313
10499
1657
1975
2397
452
2710
10818
6595
3681
422
11211
5316
657
3301
8201
2845
4066
9264
5244
1001
4198
2418
875
7443
3847
961
1580
7333
9928
2206
4266
9001
11718
4231
757
4866
5406
5313
2284
8744
8455
5507
5309
11249
4827
7116
10438
807
3907
6141
7919
9398
1956
2445
10865
9649
8395
9646
2402
10561
1073
10202
3398
4240
6524
5436
7362
10042
2091
4527
11809
1698
9063
11385
9215
6641
8863
1003
10741
10675
7472
4651
9876
10444
6156
1485
10901
5368
1411
6289
11144
10725
11744
709
6922
3603
985
3076
6169
9560
8254
5077
4101
7188
2722
11060
1268
2462
11472
268
3580
4750
7530
10128
7255
9819
8704
2821
8132
589
8281
10611
8470
656
9592
11397
2037
7681
8557
3758
6151
7382
2028
8847
677
9805
1232
5454
7457
9226
8040
4856
7662
2432
8501
11634
4647
8454
7104
896
1611
1587
6686
6878
7747
1719
8693
3806
8318
7787
4701
3961
7621
5557
5564
11442
9991
6087
890
11478
10635
4006
4939
9699
8724
5898
6173
8922
5819
8833
8092
2799
8452
584
3268
3932
4965
1260
8273
6199
6692
310
1716
6946
6009
2052
8235
4668
4298
6646
3783
1008
9855
2185
3623
11562
10035
11430
8374
9466
4834
4059
4756
7135
90
1987
470
1326
7874
9501
2117
2937
888
983
8939
8067
10157
2925
8613
3214
5884
2341
8497
10097
8983
8421
10816
6889
627
7704
4947
5080
4244
7204
4765
1601
11341
1269
128
9451
8236
1711
4182
8596
4235
7302
2398
10569
8708
10877
8339
9942
1186
8316
11569
11481
1977
5314
11680
4247
9367
915
1305
7665
3049
7653
6653
11246
1273
5698
9587
2796
6797
1398
6615
3358
183
7105
10479
8573
7481
3563
8959
6513
4567
9066
6603
9578
2656
9800
4305
1961
4992
4891
6138
5815
5869
8546
6395
11196
6226
8916
11783
8396
1251
3176
5072
3359
7040
9614
9171
9517
10618
3289
10660
10634
3190
10962
8893
1051
4069
10484
3218
11604
272
2042
4763
10824
7319
7441
1086
8149
8522
10949
2186
10461
4322
8931
9411
5831
7873
7755
9169
8414
4709
7954
9625
7917
10229
3478
9290
3924
1748
732
2553
7672
6947
8752
2662
7642
10826
3113
3303
6250
1344
10391
1690
9999
8627
5048
9479
3308
1504
10811
1806
3871
7862
3791
5217
9634
11245
1067
8255
11212
7910
2696
6451
1848
4512
10910
2431
7332
4660
6622
3435
7854
11081
142
8348
5586
10579
7336
11578
6804
6749
6100
5290
7411
3409
1117
7157
1756
497
8065
7286
870
3357
912
721
2805
11743
886
11339
9288
9811
9071
1520
10883
2746
10422
8107
314
1799
327
7933
4204
5850
6129
5447
3129
1996
8793
3968
10905
7748
1973
336
2764
9360
275
2985
7940
4620
6531
3477
9607
3558
8146
2809
10759
4861
2334
8582
5246
3416
307
3908
8995
348
5918
826
5296
11224
9511
4482
8681
3682
8231
9895
2053
7625
11354
71
7741
6855
10744
6751
8971
8475
9643
7712
5356
1666
5570
8540
52
7550
6263
1445
7356
9963
7905
1695
2892
11812
1574
8781
3203
4405
1630
9935
1881
11716
5112
5708
5074
5509
10421
7855
848
2924
8419
8482
2877
6367
9570
186
3779
1830
7144
2959
10915
9099
6904
5446
6587
1234
8290
3915
446
10197
5839
844
5201
9185
7273
7599
2440
3103
10135
4774
7944
8126
6094
1294
7143
5518
10646
5067
3442
9968
10491
9841
2837
776
11480
10970
6324
2153
5558
4920
11254
11214
7773
3136
9948
5462
8608
9983
3183
9808
1943
9405
3199
8976
1289
4581
6335
2500
10551
11274
8817
4106
4126
9688
6933
3966
1879
10024
10983
7937
5457
9148
3587
10381
3865
2148
4131
1036
636
7744
4134
7514
1083
6711
861
5212
903
191
109
6026
4455
1942
8854
4331
10680
10083
5927
2040
9165
8870
7559
4878
4659
8009
5001
2775
4145
2323
762
5921
2617
2411
1094
6065
1546
4589
6034
9544
6953
3135
7983
5040
10884
5428
6523
6419
9121
3805
884
2654
7475
10676
6774
10370
10894
464
1257
9335
7977
4274
7074
5192
5630
11445
6231
5300
2202
10683
9757
1262
8057
7212
975
8479
5866
4925
941
5263
6582
4723
2387
11495
5021
7129
4391
5148
9871
6803
3221
3882
11670
11152
1610
3875
5953
2789
944
10520
1857
10239
4108
5213
11167
3255
2690
10995
4627
8832
1319
10159
11673
5162
8159
10324
8830
1135
4529
3475
3505
4749
2477
7709
7920
7086
9428
10249
4501
7524
11656
6336
6982
7231
8823
1874
10051
7420
11321
5096
2904
570
1448
3414
9537
939
9178
9564
7792
9415
5841
6837
10782
3226
11512
6332
3978
4383
5834
9355
9060
3539
9680
10580
10501
9371
5681
2827
5780
3634
4996
1338
3262
8548
6838
5089
5741
650
6039
2902
2258
11691
5395
7082
9202
8383
3521
2730
7724
4478
5660
1596
67
2584
10982
6281
3196
11069
5327
9373
11351
1258
8364
6350
10058
991
3504
113
919
2509
11550
165
6741
11063
10087
8639
4603
10149
10041
949
4594
8035
3770
2506
5107
2850
6000
8615
11790
7545
11266
4446
5794
10251
4460
8840
2505
8955
6623
1114
6942
10214
298
1675
3347
6170
2735
5669
9448
4988
10623
10310
7431
7425
10241
4325
4172
8260
4550
11129
8487
9459
2103
5336
8168
3759
9234
1837
9498
9812
11172
5710
607
4500
7036
1093
9617
6718
8510
10584
4487
160
203
6483
3940
8243
6103
4933
2934
1814
2435
1230
10912
3046
5705
11408
8031
10717
3988
4251
6111
6828
9122
7841
6204
3293
4034
2725
4290
4334
2552
3877
6205
7634
7914
6879
7485
4753
4886
857
370
6539
9880
2561
3801
2640
5455
9543
4490
2347
649
6859
2781
7946
10085
10456
8012
7207
5944
8051
615
9965
2575
53
8657
3340
8981
1705
10697
7756
7682
1493
5876
11771
7921
803
4953
1812
9019
990
2774
9291
2448
3513
7700
10947
219
8998
1288
3163
4678
2618
3612
43
9457
8790
11139
3792
3571
11791
1503
8326
11613
3439
1892
11387
11760
8982
5255
1955
5167
4814
3575
6460
1505
9054
670
6491
7048
9689
10519
1085
897
3306
9832
6239
2666
3193
2890
6003
9034
7990
2621
9775
6202
9132
8579
8283
5813
2
5970
2370
3804
1769
10038
9869
6079
531
10181
10215
6476
6977
10531
10006
3120
10652
6259
731
3406
2339
5991
6328
2798
8204
2565
2581
9661
8775
8963
9859
383
10597
11186
1255
2104
10979
9804
8447
11740
4994
10590
8864
5057
658
4434
3484
11215
5318
3816
6773
8037
10515
2546
7799
6479
1621
11132
7260
3904
1847
10514
1096
6811
8532
10872
11202
5499
10923
2463
10436
3700
6684
11627
11609
1788
250
6314
9790
3645
1776
192
820
11376
8020
9084
8021
8369
4400
8986
5388
4166
8117
11056
4951
2687
4390
8218
3388
4927
11765
5552
2607
9244
238
4015
10942
2977
8506
7739
11105
11702
5473
945
8565
9372
5097
8563
6055
6473
8839
8153
3552
11778
3360
7342
11428
5628
2410
5783
4507
9982
3982
8161
146
11618
6901
8736
2294
2253
7178
3611
5353
1736
8221
9359
114
10466
6126
10861
11193
9806
498
7081
6559
6378
4733
720
7581
4384
10446
10573
5725
3089
10044
9097
484
4545
596
10733
8362
8337
5164
10797
1647
4590
7539
8913
6815
2700
9803
1700
10559
5404
10801
2773
2942
6968
6557
8310
6219
2512
86
7593
2308
2677
10839
11752
10335
2594
11199
9571
1029
136
6972
1236
7024
6240
8399
2854
4409
7529
1200
6121
4717
11242
7556
8697
566
9119
5933
5430
5868
6296
3927
6195
11561
9318
7955
8679
9673
3606
10525
9761
2330
3515
2187
195
9117
10747
5059
802
7762
5715
10132
2668
8233
6598
241
2068
9885
8205
10333
644
11076
5103
5460
7205
1637
7552
120
5873
2981
5069
3074
10542
7296
3278
7131
2135
9598
4970
8426
134
4351
7381
6915
5324
8282
11391
8406
2559
7829
62
9410
11755
1358
8663
8574
11156
8188
2467
679
2041
741
5307
6266
8797
3641
444
9636
10999
3258
4663
1873
4744
2596
1717
2912
2843
4027
5488
10195
7786
4485
2556
10924
6864
489
493
690
9929
3821
602
1911
1014
8391
869
1993
8098
3757
6647
10053
2366
7610
5283
4370
2686
1573
1361
8514
1526
1327
1629
11510
1551
8466
11446
1337
3901
3010
5041
10426
2250
8866
8654
5039
2346
10964
5485
10475
2784
5694
5119
5166
5555
5599
1134
150
2804
368
2086
3751
5612
2259
4017
8375
1064
2424
4138
3856
859
5367
2962
9695
9159
10110
4739
10145
4462
5528
11059
1364
10437
1779
8225
4785
2101
1818
369
4937
2704
5285
175
6405
9584
7071
9254
2093
11340
10034
3491
7817
1920
82
7331
7304
816
10155
1091
4396
2928
5568
283
6124
4120
9418
609
2915
1813
1271
7034
9590
11342
2994
9024
7482
7246
8769
6409
6104
9799
2642
9302
8229
4508
2305
8629
9898
4195
5562
4840
7493
4655
9866
9641
4168
3849
11631
9912
5253
11283
7061
11309
7476
5533
8001
2414
3554
4691
4498
7275
2195
5045
2600
6163
6373
1518
4764
4314
3366
7606
6058
10434
8687
6309
2633
7959
5755
5633
9754
5922
7512
10991
10386
2434
7162
9763
3275
8943
10108
6064
4520
5587
3545
7249
1988
8301
10403
5531
5444
7737
517
8373
6160
8877
10722
9542
8845
1415
4664
4456
2761
6974
6481
5911
10662
6547
4855
7644
10465
127
3474
6358
9835
4310
8589
2438
3765
9755
10280
6432
8197
7846
8437
11543
1473
10596
6340
4821
18
3560
3951
49
5437
11692
9626
887
6261
7236
6989
6043
2616
516
3168
2949
1424
139
7450
1924
2378
7732
3197
5131
112
8160
11533
10375
4559
4595
5329
3250
4690
11349
7951
3697
4546
9959
8119
3277
4068
4408
8402
10138
451
7262
3731
7256
10571
4986
3663
2763
8720
1855
999
389
6426
1476
2240
10792
8112
992
7032
4997
3922
2972
6871
10008
4769
1293
4173
2535
10783
1907
11213
6033
7619
1151
1567
3171
7106
4160
4287
2230
174
1903
8696
3408
1538
2292
1363
4357
5260
8844
8992
680
9354
3664
1661
508
166
10275
9853
7365
1914
7263
11524
11519
7361
1104
9279
5310
8948
5754
152
10654
5679
10832
3551
3722
4538
10378
1991
10399
5141
3811
10279
3450
4591
7352
205
6680
2749
1849
10705
3240
9395
3109
5934
5810
5634
4307
3156
6534
10261
9792
3832
10286
4776
7997
4276
8411
11336
278
6771
7415
3252
9276
11104
289
3075
8560
8384
270
4570
10362
6696
4316
3180
1422
8275
9342
4557
7812
6297
8671
11454
1132
6242
10238
11065
7423
8621
11721
5520
10276
8878
3786
8810
2161
3008
1105
8740
692
4956
8307
4369
2765
3929
10271
11606
7778
628
2451
3824
10602
3743
2176
6689
3318
9558
7432
2787
1196
1676
3947
7618
4444
5722
10009
2369
4967
2217
8148
3326
8791
3583
11547
11607
3619
6217
2468
8277
9992
5973
3667
5158
7594
6976
3423
8199
2409
3212
5366
8811
6593
2895
10879
3642
8728
9910
11585
10586
11703
5451
7160
7866
2743
4958
6474
7888
492
1116
5637
10369
11660
8771
10166
6589
10709
7557
9460
5241
10914
2783
10906
1696
5685
2295
5939
7763
3313
4781
8350
8822
7605
215
6707
9738
10963
3483
7006
5102
6599
3764
6410
8978
25
7659
10293
10868
10178
6683
11637
9141
11398
9785
1102
3276
5345
10715
8386
10601
11807
2207
4552
4402
7395
3718
972
4579
6516
719
6155
11142
2803
2566
4025
6198
8224
10432
4063
2792
2222
5818
3866
10318
10784
3227
4214
3923
8842
1401
7703
4979
3253
10190
2661
2158
8088
674
9548
7011
8699
3841
1815
9834
11621
2100
10405
6708
1673
4213
8612
1548
9438
5184
1461
11089
3220
11647
7170
7430
1751
3976
8353
1772
2016
2005
3893
3237
4424
2257
4072
5574
11230
5355
8418
6093
7935
9581
1519
9669
1378
5672
2587
11537
5621
9344
9736
5842
7122
5832
4888
5904
522
8043
3607
234
3796
6318
7094
1948
6361
6091
11508
2224
5571
4523
5793
10376
5738
2624
4728
7818
11712
10767
8812
2437
6056
6352
3167
1809
11137
7161
5086
9531
7016
9231
4945
6046
10935
6919
5590
7226
1228
9123
6846
8244
6555
159
1589
11624
11204
11183
11024
6687
11037
8953
7480
10938
1556
2828
436
5789
9652
1588
7398
2780
10607
5686
3965
4727
1238
2951
8643
9152
1497
6465
7355
7823
7547
7913
10111
5185
5647
11098
5242
2130
2092
5409
187
7938
3655
3426
9083
1381
9246
8605
7427
5037
4897
3175
9436
8448
11693
9381
2235
8068
4236
9030
9255
24
3363
1088
10812
2841
7537
7470
11007
4152
695
10838
6337
1227
1999
276
5929
2953
3637
3906
4778
5845
11458
4117
1137
2767
8182
9391
7661
8806
2490
11437
7742
3935
2384
8016
7084
115
1863
3119
4258
10903
2819
9241
10311
10730
4699
3802
6068
3536
3825
6642
10206
1946
10308
11316
9850
7269
9240
7929
7166
6963
5867
4761
882
557
9595
1207
7684
11477
6538
3211
3630
1708
8458
1140
3162
6207
3730
2660
1307
2567
2834
11307
2151
9238
3835
11455
9080
9712
5004
6626
1627
11728
11588
358
138
8491
382
8933
4857
10976
1439
946
5498
4916
8556
1932
2352
3236
9776
3807
1936
10847
4154
2416
9069
6139
785
6789
8036
8315
11176
5668
2172
2169
6628
4009
4340
910
6268
2309
6591
4458
7597
9101
11025
4652
6218
442
3415
10326
9079
9280
5744
1054
3699
929
6468
8767
1829
9158
9627
2011
913
7611
9730
9120
2606
4928
6564
9630
6
7835
6583
3361
9233
1635
1141
359
2070
3134
5160
6990
3243
2242
1474
10140
3259
4020
10431
8566
3500
2658
9976
1130
1819
7461
9289
9256
9657
7064
4318
4669
5476
11619
10355
1856
2282
10272
4008
6401
11725
10950
386
1628
9951
11013
7718
9096
11777
1842
2497
201
9500
3868
5054
5889
2702
7922
331
3808
935
1774
9319
8611
10802
989
5443
9848
6993
10094
5806
10321
10278
6574
3052
10201
8365
4615
3321
9000
6246
6048
3311
9212
11768
8210
3628
10468
1356
5002
9194
5823
11225
5670
3112
182
10463
855
9958
4912
10084
1800
10930
5482
9846
1968
9839
11520
4697
4987
4650
1159
9168
1325
9491
4796
6796
5808
11657
1455
5410
8333
2800
7616
10788
7815
4378
8921
9412
6716
3736
2261
7429
4005
2394
1185
2007
193
8770
5525
771
1478
1846
3740
7986
405
11267
10096
6317
6581
1447
342
7468
727
4577
3516
10502
11302
7156
7851
1348
660
1492
10069
5154
11318
2524
9118
10003
5374
3198
5717
9020
10745
9718
8259
9509
40
10439
6816
10153
9651
2723
10848
10127
11503
7155
9989
11401
7230
5075
7880
5394
10098
7789
11032
4088
1967
10616
10398
11331
6999
423
10946
11228
10129
6142
5661
9031
4596
2659
141
2597
6701
1377
3674
11690
6362
11062
4741
1138
7374
1787
9497
4646
7568
459
6115
8179
948
6370
4628
7358
5925
6040
441
6659
8831
9046
3830
11099
6144
10687
6344
1958
155
4578
1089
6049
10814
7950
1674
6763
9897
6416
2326
7096
10142
9313
6450
1715
8381
3831
6299
3348
11243
587
11247
2990
10961
10837
10918
264
11094
6788
10052
3864
6274
11580
3711
8438
1529
9700
923
10689
7329
4364
669
3604
5108
10637
5248
7183
2591
5906
6509
7133
2307
8804
3690
687
612
7167
11159
3200
6629
4135
1898
282
258
11134
4943
2822
3525
11410
5223
2285
6063
8078
4654
5000
6710
11018
8676
5416
475
2555
8087
7
6411
10822
10528
5546
2426
6744
11374
2274
1577
7264
3970
5879
9946
11022
7193
3867
11124
6823
7548
781
1749
6519
5774
2324
5055
10650
1727
610
4666
5413
8103
8174
8535
3750
97
6985
3137
1537
3648
1517
11049
4624
6566
2090
7097
6171
7521
572
10712
3062
597
6633
11138
7875
7345
6304
9496
11153
5976
8562
1938
8100
1753
3670
9502
2361
4260
5432
6285
9321
11181
9277
10104
9793
5591
1171
7927
9851
11050
9566
10821
874
2297
10990
2643
5347
9032
11735
581
204
7896
2014
905
631
8461
9849
1974
162
4998
4713
9067
1431
6868
10791
7710
7736
4283
7531
9417
3384
11299
9608
10604
7462
3331
6404
8895
2096
9920
7999
5017
8738
1449
6900
2610
1900
8186
3920
2757
6397
10236
2097
8329
11165
5624
9028
3471
8266
2171
10904
10846
8590
2010
11567
1283
11343
1019
8667
2810
10191
1651
11359
1169
6256
5469
10312
867
5093
5433
541
11620
6354
11029
3390
10760
11734
3959
6643
6841
9786
3586
9549
2563
5036
1080
5891
4966
2023
10613
7909
10303
7321
226
1013
1929
10240
5251
2179
697
1124
7378
9693
5110
7902
1778
9429
2634
7544
7604
3489
1037
11337
8505
2649
2979
2547
5132
2159
9114
6445
3967
1428
9937
2520
8033
10193
11661
448
10017
5995
9495
3727
7353
8553
6279
10558
7295
6251
5926
2460
22
2066
1653
8894
8706
1376
1724
3754
8652
4183
4082
8474
6579
4558
3537
7003
11188
9720
8789
646
6381
7527
11457
7165
10180
7697
11114
4875
10146
5341
7031
2160
685
2461
7128
6267
4941
5946
4583
5784
7569
10059
521
8714
3983
11295
780
11256
5607
5978
8843
3747
2196
8561
11677
4285
8569
6979
1827
9154
11429
2376
8551
3839
1246
7504
6511
5439
10917
8964
11484
5510
5330
4531
365
11794
147
1668
10447
7650
8599
7788
3456
3271
4940
9223
6230
11232
9586
9047
3926
10089
8080
78
7088
2247
9746
11750
9782
7451
8980
2279
8123
3897
9523
7177
9312
11171
3631
10182
6272
8616
392
3191
16
4200
2672
6164
3493
7394
4839
593
11118
8737
5827
7961
5887
2355
6036
4798
10210
4592
8656
163
10941
11146
11551
7380
11762
6356
9092
5542
6007
7993
7638
6793
7758
4837
2293
6548
7898
4481
3716
6140
1549
2044
767
5693
7870
7857
3302
4517
11572
10981
3292
9011
1403
1382
6928
5671
1638
11573
6907
8591
6406
9074
1179
5448
5078
8648
5175
689
10458
6525
11601
6488
7154
9939
6610
10114
4349
1884
10203
2494
5947
3036
5777
845
8734
7967
10012
7340
11277
9777
7137
2964
2529
5772
1048
7045
1960
2530
8429
4917
9325
5901
8286
4259
10122
5656
6097
5907
7373
2978
10467
10987
6721
7842
8264
10360
3138
8325
11729
1826
5548
8785
560
10404
8435
5435
4437
8597
1442
8453
4406
11260
1689
11659
10621
5962
2496
9674
340
2408
11040
5782
4576
3725
2785
1012
5280
4895
7121
6549
4037
148
285
11405
8555
9924
6770
4443
7446
236
11330
7123
9858
3083
632
6813
2493
2665
10022
10090
9940
11781
4211
3874
9424
2817
9751
11595
10606
7426
10156
10120
10869
1735
7397
4255
9774
2475
11795
3713
10603
1804
707
10858
5189
5472
72
7843
5101
6764
9382
1125
1241
9735
2349
6602
6780
4358
1343
11800
10255
11315
8632
6652
1100
9160
8841
7327
7622
987
2852
8853
630
1249
3179
482
9654
3040
5010
10315
7000
3273
7227
3683
6674
6807
11505
1316
3225
1072
4815
9979
5752
10799
4616
3097
11143
6869
1300
7285
6284
5495
5291
9600
1798
9667
5203
8227
5047
6441
8636
8105
2359
11083
3654
7052
1286
10775
4445
2137
6787
11521
10045
10587
6894
10116
8564
7151
963
6012
4882
140
10663
8906
6936
6542
5243
4431
9868
406
8212
9196
9881
10186
9135
8234
4399
5252
11
4760
1177
2863
6471
6228
9218
2989
9153
7117
7010
10102
8927
1440
11515
2875
9108
10740
10385
7232
3726
2772
9816
454
9013
8189
1367
3712
11639
1388
9042
1000
7761
3553
4114
9829
1667
3173
9539
11103
488
3230
3828
10217
5208
7848
5704
11390
8133
703
5105
10505
3291
8125
9519
11380
10651
4909
4440
986
10909
10699
7705
6257
6089
5238
1198
9710
10707
7519
6812
9206
8320
9556
7175
4470
891
1969
5757
6527
6294
7595
9110
3249
6570
6638
7351
10830
9400
7473
10876
10245
1239
2289
2740
8467
4585
9227
1229
9200
6980
5178
4293
1058
6262
281
9235
9508
968
3953
1939
11568
1274
619
10037
1742
1390
2203
9771
9847
3568
6116
11779
6052
3178
3192
9499
6099
7029
575
6656
7115
10400
6276
9472
10610
5897
5724
269
629
3081
3466
6430
11001
7062
11492
5543
4356
10763
2113
8219
3216
3814
8321
10139
2278
4599
13
10898
1525
2365
4648
374
10056
6477
525
9131
6895
3591
7904
2958
529
3714
4732
9461
1394
9633
5631
9465
6563
4703
1712
11526
955
6675
3453
9579
8595
2071
11507
158
7005
9094
352
6078
6236
8946
11787
2920
8503
4644
661
7057
3665
7979
306
4790
2356
1927
11027
3427
8941
3638
1266
1560
7179
4109
7867
4904
7294
514
894
8601
21
899
207
458
2430
8442
9299
3389
9905
3911
5383
8907
552
9631
3144
6917
2056
1925
634
6082
8508
10951
11436
8619
10144
105
3041
1709
89
7014
3174
917
7833
6732
1949
6368
1
8032
6047
9127
11682
2720
8783
11591
3117
11184
9768
3762
213
778
3496
10416
2043
8920
5420
6154
9759
8357
10288
8465
4167
3788
8586
583
11707
11797
116
6644
10664
11753
11539
11169
8712
1763
1875
3224
526
7725
2946
4473
5655
8884
6059
959
6342
3633
1050
8782
8711
3380
3676
5776
11483
6573
5179
1607
3610
11529
6635
11813
10001
791
8984
3056
10047
1980
3598
933
7424
5626
1682
4179
6446
4116
988
2896
3778
5658
3093
3155
1823
11371
1098
2844
9078
3342
38
6540
11047
8707
3356
9645
7813
9098
8220
10900
2428
5043
5346
8954
4811
8476
686
4799
7437
2353
6353
4569
8213
2752
9077
8073
9109
1040
7491
1265
10945
7059
277
5084
9437
2382
571
1435
9439
5352
5445
1007
4543
10415
2064
1136
9882
5343
10177
294
9739
8780
2403
3998
11017
3741
10895
2719
10870
5150
2808
9017
556
10540
4795
2469
3738
4286
9908
2604
362
6924
1704
2139
3239
2383
7314
4311
9477
1312
11133
3930
6183
1591
11091
2162
2396
317
9516
5233
5068
4036
8987
3020
9903
8228
9105
5295
3972
5370
4133
974
7291
9175
954
9610
9752
9547
10994
5016
11497
9179
7490
1640
1290
1380
1933
4675
10222
892
7287
4876
7906
8194
11082
9041
2466
7657
10106
9788
1913
2736
726
7214
8245
1796
3845
6402
936
2265
824
7274
1389
3564
9076
5429
7827
5690
7878
1868
8202
7486
9655
806
4805
10425
10300
10807
11761
9155
7511
8056
4494
2632
10512
8896
8623
7832
4388
145
6467
2033
10776
1165
2050
3760
4435
3430
8190
10346
7069
4361
9454
1771
3511
271
8436
2032
9005
11419
3810
9996
4346
545
3241
8930
8502
9323
11714
7564
920
10766
6640
7694
8230
7126
4278
2983
130
7980
2667
7138
3223
9374
7693
5392
614
11698
1466
4497
3042
9126
2419
5085
3294
6737
1500
9018
1521
10765
4232
7686
8820
4430
390
11649
7124
5913
8592
4806
10572
8238
8044
11556
3993
11811
6609
5319
11625
7119
2421
5604
1750
10645
11482
338
8407
1341
11276
7982
3640
329
11633
3004
6960
4090
9828
2322
6667
7009
4197
3549
9650
8363
4203
11250
10552
6185
1639
9130
60
1240
5760
5136
2343
2120
1524
7617
153
481
6122
7674
7101
1762
8942
7715
9977
10721
7479
6212
4853
2711
6766
4150
1333
11116
8378
9328
11431
11469
10250
10769
3850
8340
4124
11799
4788
2866
1386
5941
3067
10695
3629
11195
10566
3028
2969
9900
8646
6136
8801
4263
645
11407
2074
341
8041
1622
7141
5796
7184
11020
8232
5475
10281
10367
10931
74
11689
10268
8633
10902
2051
2541
1301
5877
7368
1304
8428
10735
2599
2573
3186
2768
4831
4223
11403
2106
2679
1387
10546
11414
7083
1279
804
1555
11208
4566
11425
4841
3594
6035
6852
10112
8705
4177
1308
9106
3452
3695
4242
2198
8966
4425
6150
943
822
5005
6612
8356
5619
4547
2538
9503
5207
11239
10638
3054
3675
7776
7218
6722
3300
3310
7221
8519
5954
832
3462
11021
7643
54
3451
6305
10093
1481
4873
8038
3335
6016
4926
9138
5797
10353
11614
5083
6645
5490
768
2065
11223
7311
8477
11737
4524
10524
2717
2079
8914
951
8058
2482
10454
9181
1759
9984
4422
6704
9916
5182
8533
3701
4243
688
3432
4944
966
11205
10395
2713
4757
11278
6320
5975
3572
5299
1990
1205
4971
11491
6783
3600
6490
8609
11788
8070
8577
7973
10997
1625
536
8766
7970
4212
6456
3507
8393
9524
7112
2708
5031
6514
4662
4021
1854
11135
2872
3030
9397
1645
3417
3476
11285
1792
3797
3368
7196
11392
5109
6024
8795
10977
126
5959
3876
4451
7147
3531
827
9831
7790
984
7783
10380
11320
2443
8554
10541
345
814
6166
5779
2116
10026
793
11747
6898
2674
94
4225
3756
2891
2371
11092
3228
7863
6359
10864
7326
6028
1865
4612
10049
2645
2243
5373
2336
950
1120
2204
419
922
9446
8669
10227
5408
5788
5742
7667
5567
8135
1202
5765
8389
1970
4018
10343
3687
1997
4033
1248
2192
2712
9184
2190
4670
5142
5984
6565
7804
6943
9510
10055
10535
10641
2136
1065
600
4227
7577
77
7546
2898
4820
9506
10989
6413
9444
9064
8007
5468
5951
3391
5415
2560
11685
8162
2635
5256
3530
8567
1908
10940
235
1604
7984
9310
3490
11805
1994
2824
10967
10568
1342
8512
1619
5287
2060
11757
2219
9865
6038
260
11066
10231
9093
3744
2026
6988
4234
1917
1828
9765
6233
11028
6283
4208
224
8915
10002
9333
6469
11122
846
4289
5560
2551
117
8837
5966
8195
8659
7489
5
5342
9111
10787
4324
1063
2590
8434
9352
3735
10589
3517
6986
10755
6767
5622
1605
1733
10516
11038
9504
3812
11373
10554
10167
1761
5401
2739
11381
2472
6738
6891
7943
9685
4206
6371
10350
9361
10348
232
8258
7561
9795
6168
3596
6288
4632
125
7641
6229
1296
1976
11200
11148
10267
5750
8152
3086
10957
6882
10993
7673
3345
8172
11206
5870
6506
2797
918
1646
5122
5126
4621
6809
364
2125
8150
8717
55
638
302
5811
1276
10247
4432
3644
4143
2878
6493
10478
10453
5240
11115
10488
6937
7240
9945
10160
2593
2393
523
6376
6981
6677
3900
11384
5585
11061
7956
7570
6777
10161
671
4188
666
3266
1887
8472
9911
9091
7687
6031
6090
6238
7350
7830
760
6254
1906
3818
6269
4300
5569
7941
10785
4164
5971
3579
2832
5449
3472
6327
137
7043
4892
2180
10320
7730
3177
4854
4637
5115
10988
7648
4261
1331
10209
10674
7002
9550
6941
8017
6241
9521
11798
6881
10342
4530
10314
4673
6996
1252
3374
2814
4719
6544
10040
4858
7901
8580
8427
1077
10176
4363
770
10357
8865
249
9766
7239
3419
10273
10015
4976
4544
5565
7939
716
11406
2048
5997
6600
7245
4178
4809
10916
11203
7140
7190
1460
5989
9860
10948
2000
8175
404
384
11163
11209
10344
1633
11288
4784
11175
6970
3925
4158
7449
8415
2193
10016
1015
5124
7418
7409
8989
2871
9
10136
1838
4804
255
7026
5713
3324
7714
1581
924
2779
10700
7891
6132
5320
7312
7102
6042
3775
4835
4964
10971
539
7483
2745
3719
6819
9337
4468
667
7575
8549
5063
11023
10975
1353
7114
11546
8662
2703
3330
8053
9588
3584
11155
5645
3376
1256
6190
9442
5348
11003
4175
4910
1852
6316
11642
2105
133
5029
928
823
7576
1531
1214
504
10188
6530
3072
10150
9576
9086
8647
6619
9273
3709
11326
4849
4748
4268
11671
8905
4186
10406
5301
2923
6588
1810
3486
7419
3141
10019
9347
1324
4312
7494
8702
9872
8691
11226
10048
9580
10578
5541
6172
1540
9409
2681
11675
6313
1191
5293
1542
7056
2539
953
7241
6731
4846
6801
8010
4330
8924
5334
7330
9348
4729
6541
11174
5305
5161
7860
2156
1062
10808
1167
3636
7651
5588
11130
7192
4491
7266
4980
8335
11754
4946
2782
717
10011
2502
4360
4171
8082
11532
395
7186
11603
4492
1365
11644
8787
5917
4968
2914
10518
5644
3766
3440
7357
6806
9879
2143
5104
5073
1571
4079
1122
2786
2967
2504
5988
8867
11000
7164
728
7587
7543
412
9708
5745
7668
825
3267
3974
8808
8306
417
11261
9817
6748
8967
11088
11395
2082
8945
10738
3373
5726
4107
10636
4380
7723
1066
3913
5536
8002
5387
5732
2738
5052
4000
9760
2427
6833
10123
1687
851
6303
9087
5878
8527
2839
11279
4611
9540
9207
11008
9823
2489
6905
7390
2849
6665
5881
10262
4452
9949
7421
9827
6484
2479
6617
10457
11151
11251
2141
11310
5188
11466
2744
7253
3506
1679
4249
3147
8130
10486
7004
580
9662
4070
3343
7404
3672
559
5237
7805
11041
512
1081
1664
9204
1931
11421
1150
2838
5949
8308
8932
11563
5177
830
8311
4752
11530
11486
635
4465
6799
7987
7079
6966
4142
7027
9183
876
4869
5315
5222
4
3051
5691
3124
10852
2491
3854
4777
9907
7509
6457
6293
1148
574
3769
4146
853
10174
10966
5919
9358
6614
6002
9163
10893
4495
8173
6655
2368
4780
7992
2950
5625
6971
8716
10647
1841
5986
537
2806
5801
5596
7206
7343
7560
8096
11367
784
1409
10729
154
7806
3009
1686
11093
4014
7455
3863
2733
1895
5442
569
6709
5854
1816
10257
8319
3394
3327
11793
6102
2975
980
10492
190
9331
5088
699
11531
606
301
3420
11581
1060
10757
3444
1069
10716
2205
9435
7339
8208
7679
11312
4642
7683
9007
7996
11259
5600
9151
7022
4893
225
3354
5895
10677
8754
3436
1693
6893
1045
3446
8050
9146
11792
10927
11296
4735
4496
1218
6015
9719
3987
4911
9492
4493
6944
5699
8352
956
11426
2869
4433
4973
2961
2200
98
11635
2557
11375
8445
4199
9637
5539
1648
9888
11383
6197
6295
4499
1154
2255
9874
3170
7400
10248
7158
3108
4548
5423
2049
9208
8815
11574
262
4061
5534
6616
8120
8155
1802
4736
11803
2385
6694
5759
1959
2976
8680
1843
1734
2911
11411
8338
1986
9561
6546
7098
2811
659
9986
2511
4282
9339
11464
8800
6287
1930
7125
197
7777
2931
8004
2327
4389
8958
4218
11447
202
3510
4931
5535
9925
5791
10969
1707
5172
5249
6528
11632
5855
8164
854
4737
10352
698
11344
11191
3696
1636
7280
7554
3581
1291
6585
1853
5232
3763
3304
1495
7994
1998
663
3748
4413
5530
5575
8901
7526
9474
5864
10867
6776
1306
7392
10429
11494
5592
10230
9721
1663
5450
11732
11756
3627
2693
11252
9789
10921
10817
5915
3157
11506
9914
6668
1059
4636
3242
1678
6892
6374
7574
1757
6019
5116
8755
7408
2790
863
7858
1484
7035
7721
5977
5134
206
4488
6938
9062
6910
502
7385
1028
3840
10882
8110
5056
9762
8154
10965
2731
8996
2454
7215
3104
8392
6278
3099
6184
10470
3561
5892
391
6736
5618
5258
9687
2695
2027
5463
2568
8006
64
2062
5276
7208
8684
8571
6331
4859
4887
9268
878
8529
7916
6863
7892
6439
7869
1016
9467
7629
11534
995
10173
4297
161
5675
6873
9692
7989
3843
10805
11653
1021
3073
7555
3943
1585
10147
3152
8226
775
10748
9670
7099
5486
6235
9555
7041
2612
7513
11016
10233
8433
10253
10555
8792
10627
5393
11080
8838
3890
3556
11394
1528
1267
7734
1899
4658
3005
2734
189
9998
9167
2747
2047
7849
2558
9274
8666
11096
6396
3385
4555
1184
6420
5051
5311
2433
6949
10583
769
1685
8322
11111
11363
11636
5578
4426
466
6265
5734
11284
5191
5390
860
7270
