8161
11065
3307
744
6351
3509
8531
10878
4716
7347
9185
10446
1512
10862
9967
5169
11775
3204
6459
2310
2536
6932
19
9201
6161
10083
11734
7820
7310
3946
5106
613
5032
8405
1408
3693
3928
4397
1010
5289
2201
9674
11695
3706
4629
6954
6508
850
10926
9157
11654
6935
1418
3746
10830
1432
1022
647
5735
1142
6326
8572
11507
1950
3247
1747
533
3616
5601
4205
7861
3838
10551
970
6639
10507
11196
9915
11352
4587
8802
8248
149
1650
5608
8805
9156
1275
7799
6041
396
4981
3858
8723
10153
5632
5391
5071
11723
10621
9426
8933
4718
6275
4084
3413
1323
3852
2232
8115
10063
6911
5114
4253
3316
4672
3984
6118
11541
7664
5579
9774
8713
4111
10635
8854
7286
7328
8076
9045
6641
6181
2807
10075
8607
6661
8779
6200
5389
2759
3593
10000
5731
6624
10963
2922
11159
10974
2328
9283
101
8268
2455
900
3782
6333
8430
4412
6291
7001
2039
862
4442
99
5559
385
429
1643
2715
5397
5773
7387
5377
8971
2909
6131
8536
9825
3635
4643
1662
5504
6255
10020
1670
483
6385
119
4600
3989
2771
7584
11468
11478
10166
5577
3461
2231
5204
8468
10274
10799
9773
3488
8593
5272
10655
3658
9868
914
1068
7073
2439
10954
6883
10189
2531
3068
5271
11514
4271
5030
6753
4047
10407
6768
1355
7066
4708
6086
2777
2034
3910
461
1470
4747
5990
2407
6975
3038
7930
3724
8524
304
2818
8064
10493
4099
5396
200
10104
4010
9815
379
6717
9527
7189
5871
9248
5007
6175
5641
4448
47
3813
10727
2252
5635
8594
1671
624
9614
2021
10321
7359
9388
9792
3601
245
7882
2301
7469
1720
2714
6196
9362
8185
4618
4477
2183
7202
8083
958
6098
2154
5865
4862
7755
8431
518
7217
3997
9844
11546
8874
2631
10271
4782
8677
4884
6429
3784
9953
6345
6286
8890
1277
3501
1634
6845
1320
1433
9748
4457
6383
4382
1496
8720
8695
10505
468
14
5144
2054
2791
6521
9298
11770
5130
4640
487
1479
9276
6742
2755
2325
1219
5277
1383
8124
1744
8997
1954
5477
1166
10973
6323
6698
4207
9763
1978
7143
8089
9403
4676
9173
4738
4046
5746
1983
4584
8272
8153
2873
50
9649
4960
10120
5508
5896
95
6558
3643
8969
11782
10355
3991
3133
9761
700
1053
3059
4537
8005
218
214
6825
9617
7612
4580
1617
7273
7954
4128
3353
7250
2288
3412
932
1178
6884
6220
1121
8233
6878
8379
10434
4687
967
573
8710
8912
357
3208
3329
651
6630
7798
856
2348
2157
7309
5421
8126
3800
5702
10455
11436
9450
10229
4975
4228
3131
11405
4376
11486
1002
6191
4262
554
4991
4698
8359
7585
5886
1261
6578
6106
9784
8399
9927
7828
9190
5361
2046
2167
6365
2069
6270
9995
3620
7873
8492
4190
4871
5399
11720
11069
7008
424
1139
11737
1579
5118
8981
3668
6485
11298
5787
8765
5465
11611
10534
6715
2127
8501
8118
10890
5062
7484
5943
4706
11594
7931
11497
4365
10546
6912
8380
7872
2474
9870
9782
5151
107
3429
2464
6444
5714
2085
5833
217
1964
11537
1851
9665
510
6586
3707
3065
9238
39
9056
3621
3914
1491
2483
8145
5748
2465
10796
7893
8870
10151
2664
346
4877
4202
10549
8395
5728
2992
6428
8584
4890
8985
9055
8487
9162
5957
811
3094
7487
177
11044
5936
5847
2215
3524
8950
457
3702
7384
668
749
1883
908
7780
2487
9569
7894
4674
1368
11107
8679
4783
3842
4219
3143
303
4104
9053
10858
9705
7887
210
9019
4466
9112
9988
2678
2954
4098
2859
9027
6929
11450
10421
7457
9035
3160
2214
9240
2442
6637
398
6836
9810
321
7237
6498
4467
11365
1730
764
1413
6176
4250
5427
8778
5553
9264
2150
4870
8209
3037
3948
11386
10596
6392
473
1175
1768
9199
2586
4513
10235
2360
10648
1501
4722
2626
5113
4847
7691
251
10825
673
11634
747
10759
1213
3400
1807
2826
6536
10685
4023
10834
2372
3585
3963
5863
7042
1786
11371
2290
1393
8107
6874
6860
9457
9939
2357
6719
4094
9258
10868
10582
4914
7750
6211
2625
1530
2507
1347
11528
9559
3855
562
10484
6909
9369
8457
8973
10241
3463
8704
7840
10201
5736
5170
8466
9263
6167
8111
4808
592
2879
1766
4335
6671
2142
180
5426
9514
5333
2615
33
4489
6377
2919
2342
4898
9134
9478
3437
9262
7458
4414
3705
6290
5400
9535
9289
4532
10333
2753
11635
8071
7636
3048
9726
1713
11743
10164
10298
839
8904
1217
8163
9187
9237
8486
4521
11272
1369
9624
2884
1457
10853
8994
8140
9040
8046
7613
5700
10109
11659
5683
7110
11593
11722
8360
3468
4924
11777
408
6375
2319
1971
6037
10985
3678
2020
6431
6856
6182
11667
9963
2422
9639
4096
4702
3958
4419
812
9878
6408
6734
8957
9023
10061
11684
6157
10967
10528
8872
4754
330
1035
2986
4132
1793
4714
4731
5297
6203
3694
9676
5667
4812
10307
9566
7803
3781
2087
5853
5758
5369
3761
9528
4281
11333
92
41
6625
4483
10820
2847
1006
8417
2858
9646
6433
7515
5303
6109
11359
1665
1614
9724
2894
5424
1984
4003
10208
6908
2227
8047
10561
10388
11414
9387
5851
4949
9393
3263
8614
85
1039
10929
135
9549
11639
5576
5799
11167
318
10643
9307
5965
5025
11742
9964
927
9981
1701
3742
6162
5719
7054
5049
9742
8600
5019
11774
5549
11217
10599
8451
8471
4822
1623
11059
8109
6153
4192
7889
2540
11190
7157
10575
11180
3873
11179
8653
3126
10886
9259
8796
11114
3014
4374
70
9910
5230
9578
6213
868
7332
6605
4978
11501
360
10690
9096
7972
1453
10132
3061
7235
10159
2337
7191
5761
5835
1078
1626
3819
3021
11060
4601
6214
8348
2495
4060
6688
7665
10940
9365
5484
1941
5261
7028
11150
2638
8290
8349
9661
11212
1511
8947
8257
2036
465
8507
6127
8902
2144
248
11601
7845
434
1399
9089
2174
7506
10285
2452
3441
11597
3592
1516
1282
2534
4035
7784
10290
5284
8456
7553
7696
11815
5467
6678
3060
5046
3315
543
10306
8142
2498
7142
6011
4802
5829
5354
11087
3526
9441
2221
5264
733
1905
10270
4410
7391
1683
7265
5234
4919
6149
11781
6827
7171
11222
2813
2927
11161
2874
4233
2377
9660
7918
7624
902
7652
9672
4337
8364
11472
4771
1669
8660
1692
1935
2055
7976
9691
10672
1208
6252
11539
5363
4341
10362
9612
7072
2995
708
4977
5418
10064
11553
1157
6148
35
5614
10874
6916
2963
7662
4381
6355
428
11416
1981
2527
1430
1188
2254
10769
1953
9749
1791
11012
10067
10881
3265
8621
704
8372
8496
1402
2611
8918
608
8443
7107
6384
10178
1427
5998
8298
758
3370
11271
2218
11721
1805
399
11771
542
9725
8079
1414
8371
3776
5756
4504
7040
4551
2057
367
9295
7153
3088
2405
3328
4630
63
3887
7881
3881
7600
2676
8673
9997
1844
4353
11283
9101
10697
427
5344
11647
2128
6494
11613
3528
10009
2727
676
6672
6189
3219
6282
3669
2503
1839
3780
4929
1210
9294
3148
9890
740
0
5942
2582
2189
4344
3773
7234
6627
8604
6470
10072
1434
11211
8119
2444
5809
2216
2210
6782
6492
6987
3026
7015
3469
10379
216
7220
2619
6301
866
9116
3859
9148
4193
7520
9864
9380
4429
2629
9060
2864
8281
6277
9699
795
7631
1421
2340
6952
3105
2236
4122
7510
10642
10835
6455
5066
683
6225
4619
8106
577
10972
3772
2609
3424
3995
8929
761
3314
1688
11351
6786
2412
8857
6382
3344
9858
8579
6113
4696
9246
1595
8029
8645
8358
1740
8391
10508
8690
3274
1041
3646
7007
1655
173
169
9584
2391
7876
9643
1272
9252
960
6595
8318
8067
883
10826
9024
799
11668
7478
4320
9889
10938
3755
4073
4810
6886
9395
3003
7417
3651
10439
1160
5491
9483
8149
5407
2108
7765
586
9767
4029
10763
2471
1732
3691
7298
8432
10144
1147
9470
1608
10329
10107
11519
6733
2820
7087
6850
5023
1373
2245
2620
11056
10282
10022
3000
1498
103
10681
7774
6913
8279
2651
10190
7127
6440
4149
10243
9266
8211
5011
291
8383
5500
9769
4999
8992
9607
3886
3013
3128
6575
10206
4653
9230
4246
7642
4969
4404
4189
578
4119
8937
4089
9217
10658
10586
9391
8101
9698
8463
9140
4989
2984
621
8048
8585
7459
9714
1697
10720
9178
7403
265
4031
9564
2980
6569
1285
6084
4607
4918
11380
8310
3101
2109
11390
10695
1396
259
10118
1718
2390
1803
756
3286
5494
5825
10935
4100
2585
3853
7676
6724
694
10033
11565
2709
5844
6867
4954
6497
11049
11675
2119
5362
3411
4502
3837
5721
11451
7172
6697
6997
3002
8292
1237
6422
8121
2614
5967
8675
4509
5888
1783
9785
10349
11168
1904
2124
4447
4962
10198
6857
9846
3979
1061
11423
11015
1254
952
1602
9308
3299
1118
7238
5598
6802
8862
8925
9103
10629
1562
2457
10134
8521
10402
2517
2392
2380
8243
4449
10536
2589
1056
1146
7884
3264
5489
6658
9489
8
6955
5828
8250
6001
96
1459
2238
426
10245
7536
8077
6592
6145
9884
3860
5479
979
1042
5803
10482
3393
7571
7159
5065
9473
2655
6423
582
11461
5267
8252
11311
2453
3
7580
410
11480
9664
1896
7293
6322
11665
263
4952
439
2522
4598
4407
7748
1107
7621
2692
3387
88
11137
8362
4830
6784
3599
7225
274
1281
7136
11441
8369
7412
4359
7344
2168
2389
5265
5894
9267
8295
415
6125
2802
7324
10686
5100
10909
710
3944
11095
407
3016
9723
8344
2417
3495
11434
3090
7928
8687
2239
2519
6062
8506
4794
4863
3421
1523
6412
7590
2960
1110
9702
1406
10574
2882
10537
8354
4972
7203
5912
11006
3487
6083
11683
7769
11239
633
10186
6818
8998
11108
2516
10744
131
11329
455
9305
8204
10715
774
6872
311
3082
4454
1722
7596
469
3045
1350
9619
4475
8129
10781
247
993
736
9002
10510
1825
11263
7819
5638
563
4639
8197
7516
1576
6611
4995
2627
10680
11517
10278
7402
4948
9968
6292
79
6854
796
5932
4058
10774
10305
10789
4957
9989
11569
2576
5079
10205
10976
5893
333
2982
6348
9957
1084
6187
450
3550
10261
4833
293
1250
1145
2333
5651
10750
6123
9083
5411
10906
8742
10036
852
1494
10238
4216
10756
5298
3542
5381
5317
188
1123
7046
1934
6398
11809
9161
5657
5358
2145
6747
5597
4574
500
290
3912
10431
8775
8546
5138
5123
8404
3284
590
4269
10841
7640
11746
10138
2628
8027
3079
5684
4411
777
8114
299
5183
1090
1194
7947
5312
8615
532
3617
971
5228
2732
1113
4667
10456
1592
2271
2816
9222
5566
1082
10101
11440
11282
8509
7247
11119
11457
4720
3034
8475
6740
10907
8631
10220
7663
5053
10263
2075
46
5804
1149
8919
895
5994
7501
765
2009
7224
5174
8828
1923
11320
7322
7586
7152
6596
5226
4075
565
2685
11274
8827
9058
7334
1011
11364
6208
11618
7025
5372
8490
6552
6357
2270
10165
9059
6725
3312
6193
3576
2344
10024
2012
6844
6821
9597
3834
1345
1444
10092
4695
6222
11280
5159
4622
11769
1593
7303
7474
10155
5711
80
7838
7229
6947
921
335
8581
5981
1570
2088
7716
1572
11710
7775
3728
1965
8024
3896
1509
9682
11648
8893
7905
6434
4923
5872
1845
3244
111
10358
8332
472
11262
819
6486
1795
9405
5259
8829
5128
10265
11122
10866
10335
8786
9833
1183
31
3194
8882
7831
3254
1566
6607
2564
73
3541
3798
4333
10795
2184
2996
6107
3955
10397
6580
8678
9226
10341
1111
9485
10275
3282
11379
2943
373
9182
4265
10122
4347
9231
5323
2102
10474
2318
9522
1193
45
10125
1201
3458
9589
9415
10842
1578
5091
10126
9016
4681
7261
1584
7745
4366
11418
10079
3098
6571
1864
10875
6998
3602
315
10131
2351
3647
3111
6347
9233
2019
9326
1472
11233
5219
6458
7614
8054
2688
6073
4864
3562
1351
1071
5697
4617
2855
7422
8299
2998
9811
3206
1594
4525
409
8926
6897
7952
2751
576
2754
4845
3698
5688
9918
10593
6991
713
10228
937
3464
1087
8563
8725
7173
5945
4773
4762
1454
4453
8803
8900
881
3649
1710
7885
2420
8030
2935
6463
9065
9143
2701
6877
3233
6437
8510
8008
6927
1597
6461
5768
3520
8532
8886
10660
1180
8589
7932
3822
7300
11767
10876
6945
11471
7325
2388
6632
6343
2760
10428
3467
1691
5950
123
8425
1952
5603
3540
7965
2957
5492
9511
6562
5145
9568
9857
5236
9634
3231
7517
1891
3238
8856
295
6117
10752
5380
6165
1785
11297
286
5038
1758
4139
1284
9384
5643
9979
3043
5821
7757
2916
6379
8689
549
6329
6800
4115
7695
7971
5082
3169
6706
8880
10691
9883
10050
5171
7456
10987
2910
6448
5501
5125
8606
11106
5687
8271
1303
7180
6746
9717
7472
9490
5044
10912
7176
11739
4055
9296
3035
2447
10452
3146
4049
8034
7338
8285
467
6005
5580
9975
106
10953
10436
3546
5111
411
5640
6862
9991
2742
3288
6134
7841
4007
6018
9855
11727
5674
4724
9344
2680
1862
7720
8928
4693
8045
3570
8217
29
9402
2974
7060
568
4238
5676
1245
5382
1458
8409
1835
316
108
2952
2901
2675
8888
8003
11558
6931
7356
3889
9640
4605
5338
2459
4395
6757
9192
4770
6925
4838
973
4459
5629
10933
8408
4560
8747
5743
1374
5250
5514
3508
5165
10
3777
2473
11499
9552
11542
3942
718
10949
3006
4881
735
9866
4959
10359
2140
7944
7874
909
10810
496
9026
5155
5090
6682
1206
5935
4515
6192
1195
9606
5268
9194
2913
5940
11759
6243
288
4436
9586
10850
8240
10284
388
836
3574
7713
4053
5349
4328
5993
10423
1112
2406
11524
11257
8736
9009
4301
267
3909
3448
8637
11304
4984
7223
5419
4385
6369
1379
9350
9316
416
2932
4112
1962
620
1703
7488
5563
7733
8170
6092
8328
5826
9082
1190
9004
5838
8218
3116
5257
6958
6105
1506
10851
10175
3684
8642
7497
11523
794
730
10747
10702
6992
9743
3582
1745
2788
10523
7316
11529
11410
1199
9534
5589
2608
9797
5800
1889
10981
11442
32
11345
9558
3434
8366
10113
5910
8464
7282
7333
4934
11567
6174
7499
8730
3425
11053
1486
605
7070
6515
1533
9271
6346
9970
3785
4880
1330
7471
957
3404
10368
6462
3656
11612
1660
1026
9862
11673
1247
655
623
10557
3210
2199
11242
4113
4292
10266
9038
2673
3290
7116
6325
2613
1746
4894
5802
9272
3352
76
5616
4064
7711
6128
4889
2260
1775
3717
93
8877
8543
4074
714
1076
7700
7341
6130
2015
1885
5325
5646
10449
1488
5206
3297
7608
11749
3107
6108
3485
1437
1233
185
4201
5538
8686
3100
1297
10739
11219
7362
4083
7809
3132
3187
6772
381
3017
1155
6755
3883
1728
5376
8316
2425
1253
10512
11007
6537
3139
8769
9863
7635
3130
2191
3532
11228
11463
3027
11697
8625
7855
530
3431
4832
11559
4568
4226
5058
9876
5227
10728
8913
144
6790
6080
8094
2492
5502
3355
2973
10749
8446
10081
10119
7914
788
2588
3449
3529
6224
2030
4665
11725
3207
4401
431
7865
1780
6983
10242
6066
349
8324
6499
42
2691
981
2312
3349
2955
9342
2684
7278
11330
4982
3011
2876
916
6518
6728
8085
1616
5095
5666
11318
7393
1833
8057
8545
2948
8522
782
8873
1156
1536
11109
3025
10497
11645
10922
11706
2401
4789
7743
3369
10325
2152
8758
4474
7228
7837
4394
7623
10897
6472
11427
9113
3613
3125
8749
6899
8028
3973
1731
10693
8634
5805
11127
1870
6227
2211
9955
5163
3708
3949
8876
6067
10339
2107
11664
8962
3272
7738
567
6414
11595
2367
9814
10260
8187
440
2018
9956
8330
6620
4077
8065
10843
6824
8262
1224
5523
2592
9282
4288
36
11085
6745
2249
10957
3846
7791
6454
5302
8169
8959
3405
9554
2846
8855
1360
5471
6695
486
3492
6918
4974
4387
6223
10096
637
7773
4540
7279
3295
3703
10783
11785
5860
7681
5117
167
1915
7135
8735
4093
9976
10310
8739
8377
801
2138
6887
5335
742
6061
9575
9351
6666
5098
11046
8437
5321
7562
3884
2478
715
10758
7254
10299
4338
4184
5076
2089
7023
9394
4901
3692
1834
6831
7850
10838
10044
3671
11629
10961
2929
2485
10030
7839
11669
9198
1886
23
4147
9493
1309
5620
789
3994
5712
9410
4118
2514
3870
11335
8313
8051
6248
3527
7759
1957
11281
10797
6636
4791
8908
3921
8889
7020
5466
11747
9330
5364
7091
10124
9735
5470
1226
3752
3844
11740
4091
5434
3544
7522
4024
1310
4392
4983
4597
7063
4264
3499
10221
1822
6720
1315
9329
4828
2315
4048
8141
2595
9408
1339
4110
738
965
252
5152
2098
872
3325
4755
8582
4721
11126
4256
7181
5650
6388
8909
9386
3482
5357
10199
6535
8485
11797
9036
9488
7592
5532
11587
447
9188
56
4767
4463
476
8460
6438
7428
9780
5440
4860
9202
6848
750
7903
4641
376
2458
5843
9746
10913
4851
10979
5617
11802
10225
3931
3689
2400
9448
3753
7739
6427
10779
11256
9887
9249
7095
11716
6391
227
5339
2317
9525
8861
8544
2648
1508
5766
11027
1684
499
6553
1699
1877
7672
513
5028
3118
8009
7690
4028
10558
7550
474
6260
7033
3418
3115
5837
11158
7671
480
3894
10302
2577
10694
11376
5689
11579
9303
6584
9346
7379
4705
1349
3234
8719
2993
8760
3660
8494
1606
4766
2762
11718
2956
1659
9720
1446
8373
1020
705
3891
1866
9954
6244
3251
2122
2574
9553
1921
9679
8138
8830
1419
9965
3652
4900
2025
594
1558
3954
7382
10094
4367
5848
2058
10654
3031
4291
4533
11324
3422
6705
3685
3721
5190
6849
6760
535
9306
292
2836
4342
2870
5740
4295
8337
11366
6798
5034
1318
7375
4450
3790
5493
4786
6390
5739
9104
5292
8693
2228
7251
5775
11433
4043
4127
8251
9170
356
11732
3403
10224
9838
837
5511
10959
5859
2006
3519
7271
8570
2362
5013
8061
8643
5281
2899
1890
7049
157
8305
8139
9224
1441
7213
2748
8334
8835
9371
9417
5858
7514
9891
3938
1963
6023
4217
7200
8168
9321
9677
3902
9414
11435
4680
3679
1543
7448
8394
2268
6964
6826
3919
3372
9885
9244
603
6315
3547
8411
393
10804
5453
7308
4807
5937
5522
7168
3222
8951
5337
181
2277
3941
10773
3305
10628
8312
4902
4649
401
6311
1631
3181
4606
3857
6752
5199
10900
11679
9886
5778
4768
4220
6896
6691
8478
7607
6249
10670
2067
4850
7038
1599
7558
1385
9015
3971
6088
1405
809
8699
2029
5730
2650
11577
3024
11701
10276
5235
1702
4194
61
3465
4792
7897
2094
5464
9973
1880
3379
10934
5882
10217
7834
2287
6556
8810
7195
4343
7933
4868
664
2906
1046
5371
2404
11288
7535
1568
462
743
222
7318
10659
3334
625
4345
6339
2188
2177
6759
9464
5611
9158
438
4209
5239
353
3952
456
3650
6425
239
7601
10498
7864
5211
11680
8497
8426
7307
4224
1018
6775
8416
1760
5952
10373
10021
1103
10590
7367
4398
9189
4245
11073
3063
9517
8493
2947
10824
10908
6712
11129
4415
10286
11005
9852
9937
8759
1034
2264
8557
4339
9211
3473
906
7728
8454
7978
9906
8127
10223
2286
11339
8439
11711
8368
5064
7754
5359
3378
2900
1721
5916
5996
3184
7268
1824
3080
8269
3023
11623
9513
1901
3745
3595
1918
8081
5425
1569
6808
347
1242
420
4562
8938
4441
9054
9622
9051
10562
10303
1031
4604
6550
9531
4896
7645
4040
763
10504
7442
10451
2484
1222
11138
2134
2423
3578
6452
5513
7258
10415
7821
8084
1575
509
11350
6013
8863
2304
4317
748
6890
11353
1259
3077
5583
4004
11525
3323
711
8612
10780
3399
3522
6520
1372
712
8060
8751
9327
5294
7890
4608
8728
3470
9994
1482
1489
104
7572
1794
6888
1821
2386
8183
6690
4779
1741
1658
212
5168
4102
10683
3058
323
11132
1097
10425
1359
334
7962
3110
4417
1613
5412
792
233
7675
5015
7985
209
9475
10171
5306
6245
4700
7566
3445
2413
4215
7204
4743
9139
9618
871
6758
1263
1618
11412
6851
5905
8075
8797
5216
1220
5516
1765
10269
2456
7433
7660
2001
1513
4772
2801
9003
6654
2523
4081
7678
9071
8424
9443
9843
3078
11121
10544
9375
9560
10163
2110
7210
2375
9008
4080
3704
3615
7453
5701
10005
6762
3523
617
3447
9728
9620
9529
10618
2652
7348
8504
745
11576
2004
7201
10914
11291
3047
11097
10465
1336
11649
5582
5121
6400
3898
4609
3285
5129
6794
10891
1313
4375
11460
4030
2903
9770
6834
3333
7405
11616
8181
3053
8814
976
8206
4950
653
9562
2269
8694
9052
9537
10566
6669
8323
10844
7288
6271
8387
611
11505
2114
10548
4829
6693
9686
3166
2602
10148
511
9293
6114
3015
8935
8948
3794
8817
7508
520
8276
6663
6743
11148
3817
10511
5550
6298
11707
9453
3851
1109
10483
9929
1038
4162
20
5332
4148
7540
8822
4519
934
5006
7281
9145
394
11254
1737
2165
561
3069
8809
10892
9381
1162
5960
4329
1729
1527
10761
842
2930
6739
58
5149
2865
3710
6366
2291
5908
83
5140
6973
1945
1649
4170
3608
2724
6714
5384
414
11223
2450
6522
4819
4439
5747
3688
4308
7389
11232
2907
10791
6418
3538
2133
1897
7438
9044
8703
7216
11401
8055
11776
1817
11536
1937
337
2335
5718
2072
5403
1726
11803
1047
5120
7551
2815
10029
9487
2320
5186
9515
4730
3386
5386
766
2861
4867
3833
1144
9745
9659
2510
4614
2273
11554
4092
5928
7467
5156
102
1989
4176
4685
9544
828
8617
1672
5762
10863
8066
10539
2856
9894
3975
7895
2275
4373
7401
10650
2045
6560
4403
9557
1295
5497
591
4105
221
11473
7907
11273
7492
858
4553
6779
6501
8603
841
9820
10328
5496
9128
994
6158
10210
1554
11811
7814
5414
11128
6842
6464
9220
2848
6014
9666
2513
8136
1463
10324
6386
10620
2835
4707
8327
2233
3050
10471
11024
400
4634
4740
7964
6022
7977
6179
5008
1023
3298
4026
5180
59
4684
4315
11419
8059
7656
1328
9802
3351
4844
5365
3279
10069
10168
5092
11255
1550
1009
8743
2554
10255
1612
2737
3455
5270
10213
11469
648
10809
2862
879
4464
4688
2303
6072
1624
550
10860
8885
7680
4303
4237
5961
211
9875
5517
9481
3232
5556
6201
3543
68
1438
2515
2868
7937
6389
9920
696
9466
6503
7802
6253
6967
1314
6590
6306
5398
9494
4879
12
6532
818
11551
7969
1346
10219
453
6095
11449
1656
3457
4123
10318
10027
37
8090
7039
1043
2908
6319
940
4191
5441
4671
9115
7416
5890
9291
6959
538
11160
7579
1400
5716
10527
30
2267
10232
8999
4313
3677
2470
9932
4602
3827
4826
11702
5288
1092
266
1108
9050
10689
3229
9570
6778
5286
3319
6594
1739
230
6965
898
11477
7174
7900
10283
9608
5572
8847
1563
9623
8537
3071
8191
11578
9822
3433
8304
9367
10564
10956
9147
6210
6735
7588
11241
3573
4635
9010
4874
3375
2840
11309
9590
10463
11443
6221
10856
10762
10888
3614
2213
833
8627
5639
9433
10444
2111
8671
5527
10707
1743
8542
4480
5279
9210
10675
8883
8270
2543
930
9836
1197
7130
6601
355
1429
11624
3095
2991
8147
8367
9379
1153
8483
332
8099
2769
7756
1598
11765
8346
5225
964
11195
5770
7868
2698
11790
4012
1483
1395
9063
6727
3281
7942
1426
2544
5210
8696
6529
2885
5862
7669
3070
2178
9349
11786
1057
8724
9707
9799
9432
2968
11550
3123
9479
1544
4746
11235
8484
4299
7364
724
7787
6044
11671
1127
7383
7257
11631
1586
5749
11245
7440
1561
4963
4710
8216
8157
8784
4885
7722
7911
5914
1808
2889
6147
6923
11192
9598
8976
3287
9772
6703
9287
2605
11642
1392
10491
10212
752
6820
3737
11556
9434
10082
3215
4913
6449
