8161
11065
3307
744
6351
3509
8531
10878
4716
7347
9185
10446
1512
10862
9967
5169
11775
3204
6459
2310
2536
6932
19
9201
6161
10083
11734
7820
7310
3946
5106
613
5032
8405
1408
3693
3928
4397
1010
5289
2201
9674
11695
3706
4629
6954
6508
850
10926
9157
11654
6935
1418
3746
10830
1432
1022
647
5735
1142
6326
8572
11507
1950
3247
1747
533
3616
5601
4205
7861
3838
10551
970
6639
10507
11196
9915
11352
4587
8802
8248
149
1650
5608
8805
9156
1275
7799
6041
396
4981
3858
8723
10153
5632
5391
5071
11723
10621
9426
8933
4718
6275
4084
3413
1323
3852
2232
8115
10063
6911
5114
4253
3316
4672
3984
6118
11541
7664
5579
9774
8713
4111
10635
8854
7286
7328
8076
9045
6641
6181
2807
10075
8607
6661
8779
6200
5389
2759
3593
10000
5731
6624
10963
2922
11159
10974
2328
9283
101
8268
2455
900
3782
6333
8430
4412
6291
7001
2039
862
4442
99
5559
385
429
1643
2715
5397
5773
7387
5377
8971
2909
6131
8536
9825
3635
4643
1662
5504
6255
10020
1670
483
6385
119
4600
3989
2771
7584
11468
11478
10166
5577
3461
2231
5204
8468
10274
10799
9773
3488
8593
5272
10655
3658
9868
914
1068
7073
2439
10954
6883
10189
2531
3068
5271
11514
4271
5030
6753
4047
10407
6768
1355
7066
4708
6086
2777
2034
3910
461
1470
4747
5990
2407
6975
3038
7930
3724
8524
304
2818
8064
10493
4099
5396
200
10104
4010
9815
379
6717
9527
7189
5871
9248
5007
6175
5641
4448
47
3813
10727
2252
5635
8594
1671
624
9614
2021
10321
7359
9388
9792
3601
245
7882
2301
7469
1720
2714
6196
9362
8185
4618
4477
2183
7202
8083
958
6098
2154
5865
4862
7755
8431
518
7217
3997
9844
11546
8874
2631
10271
4782
8677
4884
6429
3784
9953
6345
6286
8890
1277
3501
1634
6845
1320
1433
9748
4457
6383
4382
1496
8720
8695
10505
468
14
5144
2054
2791
6521
9298
11770
5130
4640
487
1479
9276
6742
2755
2325
1219
5277
1383
8124
1744
8997
1954
5477
1166
10973
6323
6698
4207
9763
1978
7143
8089
9403
4676
9173
4738
4046
5746
1983
4584
8272
8153
2873
50
9649
4960
10120
5508
5896
95
6558
3643
8969
11782
10355
3991
3133
9761
700
1053
3059
4537
8005
218
214
6825
9617
7612
4580
1617
7273
7954
4128
3353
7250
2288
3412
932
1178
6884
6220
1121
8233
6878
8379
10434
4687
967
573
8710
8912
357
3208
3329
651
6630
7798
856
2348
2157
7309
5421
8126
3800
5702
10455
11436
9450
10229
4975
4228
3131
11405
4376
11486
1002
6191
4262
554
4991
4698
8359
7585
5886
1261
6578
6106
9784
8399
9927
7828
9190
5361
2046
2167
6365
2069
6270
9995
3620
7873
8492
4190
4871
5399
11720
11069
7008
424
1139
11737
1579
5118
8981
3668
6485
11298
5787
8765
5465
11611
10534
6715
2127
8501
8118
10890
5062
7484
5943
4706
11594
7931
11497
4365
10546
6912
8380
7872
2474
9870
9782
5151
107
3429
2464
6444
5714
2085
5833
217
1964
11537
1851
9665
510
6586
3707
3065
9238
39
9056
3621
3914
1491
2483
8145
5748
2465
10796
7893
8870
10151
2664
346
4877
4202
10549
8395
5728
2992
6428
8584
4890
8985
9055
8487
9162
5957
811
3094
7487
177
11044
5936
5847
2215
3524
8950
457
3702
7384
668
749
1883
908
7780
2487
9569
7894
4674
1368
11107
8679
4783
3842
4219
3143
303
4104
9053
10858
9705
7887
210
9019
4466
9112
9988
2678
2954
4098
2859
9027
6929
11450
10421
7457
9035
3160
2214
9240
2442
6637
398
6836
9810
321
7237
6498
4467
11365
1730
764
1413
6176
4250
5427
8778
5553
9264
2150
4870
8209
3037
3948
11386
10596
6392
473
1175
1768
9199
2586
4513
10235
2360
10648
1501
4722
2626
5113
4847
7691
251
10825
673
11634
747
10759
1213
3400
1807
2826
6536
10685
4023
10834
2372
3585
3963
5863
7042
1786
11371
2290
1393
8107
6874
6860
9457
9939
2357
6719
4094
9258
10868
10582
4914
7750
6211
2625
1530
2507
1347
11528
9559
3855
562
10484
6909
9369
8457
8973
10241
3463
8704
7840
10201
5736
5170
8466
9263
6167
8111
4808
592
2879
1766
4335
6671
2142
180
5426
9514
5333
2615
33
4489
6377
2919
2342
4898
9134
9478
3437
9262
7458
4414
3705
6290
5400
9535
9289
4532
10333
2753
11635
8071
7636
3048
9726
1713
11743
10164
10298
839
8904
1217
8163
9187
9237
8486
4521
11272
1369
9624
2884
1457
10853
8994
8140
9040
8046
7613
5700
10109
11659
5683
7110
11593
11722
8360
3468
4924
11777
408
6375
2319
1971
6037
10985
3678
2020
6431
6856
6182
11667
9963
2422
9639
4096
4702
3958
4419
812
9878
6408
6734
8957
9023
10061
11684
6157
10967
10528
8872
4754
330
1035
2986
4132
1793
4714
4731
5297
6203
3694
9676
5667
4812
10307
9566
7803
3781
2087
5853
5758
5369
3761
9528
4281
11333
92
41
6625
4483
10820
2847
1006
8417
2858
9646
6433
7515
5303
6109
11359
1665
1614
9724
2894
5424
1984
4003
10208
6908
2227
8047
10561
10388
11414
9387
5851
4949
9393
3263
8614
85
1039
10929
135
9549
11639
5576
5799
11167
318
10643
9307
5965
5025
11742
9964
927
9981
1701
3742
6162
5719
7054
5049
9742
8600
5019
11774
5549
11217
10599
8451
8471
4822
1623
11059
8109
6153
4192
7889
2540
11190
7157
10575
11180
3873
11179
8653
3126
10886
9259
8796
11114
3014
4374
70
9910
5230
9578
6213
868
7332
6605
4978
11501
360
10690
9096
7972
1453
10132
3061
7235
10159
2337
7191
5761
5835
1078
1626
3819
3021
11060
4601
6214
8348
2495
4060
6688
7665
10940
9365
5484
1941
5261
7028
11150
2638
8290
8349
9661
11212
1511
8947
8257
2036
465
8507
6127
8902
2144
248
11601
7845
434
1399
9089
2174
7506
10285
2452
3441
11597
3592
1516
1282
2534
4035
7784
10290
5284
8456
7553
7696
11815
5467
6678
3060
5046
3315
543
10306
8142
2498
7142
6011
4802
5829
5354
11087
3526
9441
2221
5264
733
1905
10270
4410
7391
1683
7265
5234
4919
6149
11781
6827
7171
11222
2813
2927
11161
2874
4233
2377
9660
7918
7624
902
7652
9672
4337
8364
11472
4771
1669
8660
1692
1935
2055
7976
9691
10672
1208
6252
11539
5363
4341
10362
9612
7072
2995
708
4977
5418
10064
11553
1157
6148
35
5614
10874
6916
2963
7662
4381
6355
428
11416
1981
2527
1430
1188
2254
10769
1953
9749
1791
11012
10067
10881
3265
8621
704
8372
8496
1402
2611
8918
608
8443
7107
6384
10178
1427
5998
8298
758
3370
11271
2218
11721
1805
399
11771
542
9725
8079
1414
8371
3776
5756
4504
7040
4551
2057
367
9295
7153
3088
2405
3328
4630
63
3887
7881
3881
7600
2676
8673
9997
1844
4353
11283
9101
10697
427
5344
11647
2128
6494
11613
3528
10009
2727
676
6672
6189
3219
6282
3669
2503
1839
3780
4929
1210
9294
3148
9890
740
0
5942
2582
2189
4344
3773
7234
6627
8604
6470
10072
1434
11211
8119
2444
5809
2216
2210
6782
6492
6987
3026
7015
3469
10379
216
7220
2619
6301
866
9116
3859
9148
4193
7520
9864
9380
4429
2629
9060
2864
8281
6277
9699
795
7631
1421
2340
6952
3105
2236
4122
7510
10642
10835
6455
5066
683
6225
4619
8106
577
10972
3772
2609
3424
3995
8929
761
3314
1688
11351
6786
2412
8857
6382
3344
9858
8579
6113
4696
9246
1595
8029
8645
8358
1740
8391
10508
8690
3274
1041
3646
7007
1655
173
169
9584
2391
7876
9643
1272
9252
960
6595
8318
8067
883
10826
9024
799
11668
7478
4320
9889
10938
3755
4073
4810
6886
9395
3003
7417
3651
10439
1160
5491
9483
8149
5407
2108
7765
586
9767
4029
10763
2471
1732
3691
7298
8432
10144
1147
9470
1608
10329
10107
11519
6733
2820
7087
6850
5023
1373
2245
2620
11056
10282
10022
3000
1498
103
10681
7774
6913
8279
2651
10190
7127
6440
4149
10243
9266
8211
5011
291
8383
5500
9769
4999
8992
9607
3886
3013
3128
6575
10206
4653
9230
4246
7642
4969
4404
4189
578
4119
8937
4089
9217
10658
10586
9391
8101
9698
8463
9140
4989
2984
621
8048
8585
7459
9714
1697
10720
9178
7403
265
4031
9564
2980
6569
1285
6084
4607
4918
11380
8310
3101
2109
11390
10695
1396
259
10118
1718
2390
1803
756
3286
5494
5825
10935
4100
2585
3853
7676
6724
694
10033
11565
2709
5844
6867
4954
6497
11049
11675
2119
5362
3411
4502
3837
5721
11451
7172
6697
6997
3002
8292
1237
6422
8121
2614
5967
8675
4509
5888
1783
9785
10349
11168
1904
2124
4447
4962
10198
6857
9846
3979
1061
11423
11015
1254
952
1602
9308
3299
1118
7238
5598
6802
8862
8925
9103
10629
1562
2457
10134
8521
10402
2517
2392
2380
8243
4449
10536
2589
1056
1146
7884
3264
5489
6658
9489
8
6955
5828
8250
6001
96
1459
2238
426
10245
7536
8077
6592
6145
9884
3860
5479
979
1042
5803
10482
3393
7571
7159
5065
9473
2655
6423
582
11461
5267
8252
11311
2453
3
7580
410
11480
9664
1896
7293
6322
11665
263
4952
439
2522
4598
4407
7748
1107
7621
2692
3387
88
11137
8362
4830
6784
3599
7225
274
1281
7136
11441
8369
7412
4359
7344
2168
2389
5265
5894
9267
8295
415
6125
2802
7324
10686
5100
10909
710
3944
11095
407
3016
9723
8344
2417
3495
11434
3090
7928
8687
2239
2519
6062
8506
4794
4863
3421
1523
6412
7590
2960
1110
9702
1406
10574
2882
10537
8354
4972
7203
5912
11006
3487
6083
11683
7769
11239
633
10186
6818
8998
11108
2516
10744
131
11329
455
9305
8204
10715
774
6872
311
3082
4454
1722
7596
469
3045
1350
9619
4475
8129
10781
247
993
736
9002
10510
1825
11263
7819
5638
563
4639
8197
7516
1576
6611
4995
2627
10680
11517
10278
7402
4948
9968
6292
79
6854
796
5932
4058
10774
10305
10789
4957
9989
11569
2576
5079
10205
10976
5893
333
2982
6348
9957
1084
6187
450
3550
10261
4833
293
1250
1145
2333
5651
10750
6123
9083
5411
10906
8742
10036
852
1494
10238
4216
10756
5298
3542
5381
5317
188
1123
7046
1934
6398
11809
9161
5657
5358
2145
6747
5597
4574
500
290
3912
10431
8775
8546
5138
5123
8404
3284
590
4269
10841
7640
11746
10138
2628
8027
3079
5684
4411
777
8114
299
5183
1090
1194
7947
5312
8615
532
3617
971
5228
2732
1113
4667
10456
1592
2271
2816
9222
5566
1082
10101
11440
11282
8509
7247
11119
11457
4720
3034
8475
6740
10907
8631
10220
7663
5053
10263
2075
46
5804
1149
8919
895
5994
7501
765
2009
7224
5174
8828
1923
11320
7322
7586
7152
6596
5226
4075
565
2685
11274
8827
9058
7334
1011
11364
6208
11618
7025
5372
8490
6552
6357
2270
10165
9059
6725
3312
6193
3576
2344
10024
2012
6844
6821
9597
3834
1345
1444
10092
4695
6222
11280
5159
4622
11769
1593
7303
7474
10155
5711
80
7838
7229
6947
921
335
8581
5981
1570
2088
7716
1572
11710
7775
3728
1965
8024
3896
1509
9682
11648
8893
7905
6434
4923
5872
1845
3244
111
10358
8332
472
11262
819
6486
1795
9405
5259
8829
5128
10265
11122
10866
10335
8786
9833
1183
31
3194
8882
7831
3254
1566
6607
2564
73
3541
3798
4333
10795
2184
2996
6107
3955
10397
6580
8678
9226
10341
1111
9485
10275
3282
11379
2943
373
9182
4265
10122
4347
9231
5323
2102
10474
2318
9522
1193
45
10125
1201
3458
9589
9415
10842
1578
5091
10126
9016
4681
7261
1584
7745
4366
11418
10079
3098
6571
1864
10875
6998
3602
315
10131
2351
3647
3111
6347
9233
2019
9326
1472
11233
5219
6458
7614
8054
2688
6073
4864
3562
1351
1071
5697
4617
2855
7422
8299
2998
9811
3206
1594
4525
409
8926
6897
7952
2751
576
2754
4845
3698
5688
9918
10593
6991
713
10228
937
3464
1087
8563
8725
7173
5945
4773
4762
1454
4453
8803
8900
881
3649
1710
7885
2420
8030
2935
6463
9065
9143
2701
6877
3233
6437
8510
8008
6927
1597
6461
5768
3520
8532
8886
10660
1180
8589
7932
3822
7300
11767
10876
6945
11471
7325
2388
6632
6343
2760
10428
3467
1691
5950
123
8425
1952
5603
3540
7965
2957
5492
9511
6562
5145
9568
9857
5236
9634
3231
7517
1891
3238
8856
295
6117
10752
5380
6165
1785
11297
286
5038
1758
4139
1284
9384
5643
9979
3043
5821
7757
2916
6379
8689
549
6329
6800
4115
7695
7971
5082
3169
6706
8880
10691
9883
10050
5171
7456
10987
2910
6448
5501
5125
8606
11106
5687
8271
1303
7180
6746
9717
7472
9490
5044
10912
7176
11739
4055
9296
3035
2447
10452
3146
4049
8034
7338
8285
467
6005
5580
9975
106
10953
10436
3546
5111
411
5640
6862
9991
2742
3288
6134
7841
4007
6018
9855
11727
5674
4724
9344
2680
1862
7720
8928
4693
8045
3570
8217
29
9402
2974
7060
568
4238
5676
1245
5382
1458
8409
1835
316
108
2952
2901
2675
8888
8003
11558
6931
7356
3889
9640
4605
5338
2459
4395
6757
9192
4770
6925
4838
973
4459
5629
10933
8408
4560
8747
5743
1374
5250
5514
3508
5165
10
3777
2473
11499
9552
11542
3942
718
10949
3006
4881
735
9866
4959
10359
2140
7944
7874
909
10810
496
9026
5155
5090
6682
1206
5935
4515
6192
1195
9606
5268
9194
2913
5940
11759
6243
288
4436
9586
10850
8240
10284
388
836
3574
7713
4053
5349
4328
5993
10423
1112
2406
11524
11257
8736
9009
4301
267
3909
3448
8637
11304
4984
7223
5419
4385
6369
1379
9350
9316
416
2932
4112
1962
620
1703
7488
5563
7733
8170
6092
8328
5826
9082
1190
9004
5838
8218
3116
5257
6958
6105
1506
10851
10175
3684
8642
7497
11523
794
730
10747
10702
6992
9743
3582
1745
2788
10523
7316
11529
11410
1199
9534
5589
2608
9797
5800
1889
10981
11442
32
11345
9558
3434
8366
10113
5910
8464
7282
7333
4934
11567
6174
7499
8730
3425
11053
1486
605
7070
6515
1533
9271
6346
9970
3785
4880
1330
7471
957
3404
10368
6462
3656
11612
1660
1026
9862
11673
1247
655
623
10557
3210
2199
11242
4113
4292
10266
9038
2673
3290
7116
6325
2613
1746
4894
5802
9272
3352
76
5616
4064
7711
6128
4889
2260
1775
3717
93
8877
8543
4074
714
1076
7700
7341
6130
2015
1885
5325
5646
10449
1488
5206
3297
7608
11749
3107
6108
3485
1437
1233
185
4201
5538
8686
3100
1297
10739
11219
7362
4083
7809
3132
3187
6772
381
3017
1155
6755
3883
1728
5376
8316
2425
1253
10512
11007
6537
3139
8769
9863
7635
3130
2191
3532
11228
11463
3027
11697
8625
7855
530
3431
4832
11559
4568
4226
5058
9876
5227
10728
8913
144
6790
6080
8094
2492
5502
3355
2973
10749
8446
10081
10119
7914
788
2588
3449
3529
6224
2030
4665
11725
3207
4401
431
7865
1780
6983
10242
6066
349
8324
6499
42
2691
981
2312
3349
2955
9342
2684
7278
11330
4982
3011
2876
916
6518
6728
8085
1616
5095
5666
11318
7393
1833
8057
8545
2948
8522
782
8873
1156
1536
11109
3025
10497
11645
10922
11706
2401
4789
7743
3369
10325
2152
8758
4474
7228
7837
4394
7623
10897
6472
11427
9113
3613
3125
8749
6899
8028
3973
1731
10693
8634
5805
11127
1870
6227
2211
9955
5163
3708
3949
8876
6067
10339
2107
11664
8962
3272
7738
567
6414
11595
2367
9814
10260
8187
440
2018
9956
8330
6620
4077
8065
10843
6824
8262
1224
5523
2592
9282
4288
36
11085
6745
2249
10957
3846
7791
6454
5302
8169
8959
3405
9554
2846
8855
1360
5471
6695
486
3492
6918
4974
4387
6223
10096
637
7773
4540
7279
3295
3703
10783
11785
5860
7681
5117
167
1915
7135
8735
4093
9976
10310
8739
8377
801
2138
6887
5335
742
6061
9575
9351
6666
5098
11046
8437
5321
7562
3884
2478
715
10758
7254
10299
4338
4184
5076
2089
7023
9394
4901
3692
1834
6831
7850
10838
10044
3671
11629
10961
2929
2485
10030
7839
11669
9198
1886
23
4147
9493
1309
5620
789
3994
5712
9410
4118
2514
3870
11335
8313
8051
6248
3527
7759
1957
11281
10797
6636
4791
8908
3921
8889
7020
5466
11747
9330
5364
7091
10124
9735
5470
1226
3752
3844
11740
4091
5434
3544
7522
4024
1310
4392
4983
4597
7063
4264
3499
10221
1822
6720
1315
9329
4828
2315
4048
8141
2595
9408
1339
4110
738
965
252
5152
2098
872
3325
4755
8582
4721
11126
4256
7181
5650
6388
8909
9386
3482
5357
10199
6535
8485
11797
9036
9488
7592
5532
11587
447
9188
56
4767
4463
476
8460
6438
7428
9780
5440
4860
9202
6848
750
7903
4641
376
2458
5843
9746
10913
4851
10979
5617
11802
10225
3931
3689
2400
9448
3753
7739
6427
10779
11256
9887
9249
7095
11716
6391
227
5339
2317
9525
8861
8544
2648
1508
5766
11027
1684
499
6553
1699
1877
7672
513
5028
3118
8009
7690
4028
10558
7550
474
6260
7033
3418
3115
5837
11158
7671
480
3894
10302
2577
10694
11376
5689
11579
9303
6584
9346
7379
4705
1349
3234
8719
2993
8760
3660
8494
1606
4766
2762
11718
2956
1659
9720
1446
8373
1020
705
3891
1866
9954
6244
3251
2122
2574
9553
1921
9679
8138
8830
1419
9965
3652
4900
2025
594
1558
3954
7382
10094
4367
5848
2058
10654
3031
4291
4533
11324
3422
6705
3685
3721
5190
6849
6760
535
9306
292
2836
4342
2870
5740
4295
8337
11366
6798
5034
1318
7375
4450
3790
5493
4786
6390
5739
9104
5292
8693
2228
7251
5775
11433
4043
4127
8251
9170
356
11732
3403
10224
9838
837
5511
10959
5859
2006
3519
7271
8570
2362
5013
8061
8643
5281
2899
1890
7049
157
8305
8139
9224
1441
7213
2748
8334
8835
9371
9417
5858
7514
9891
3938
1963
6023
4217
7200
8168
9321
9677
3902
9414
11435
4680
3679
1543
7448
8394
2268
6964
6826
3919
3372
9885
9244
603
6315
3547
8411
393
10804
5453
7308
4807
5937
5522
7168
3222
8951
5337
181
2277
3941
10773
3305
10628
8312
4902
4649
401
6311
1631
3181
4606
3857
6752
5199
10900
11679
9886
5778
4768
4220
6896
6691
8478
7607
6249
10670
2067
4850
7038
1599
7558
1385
9015
3971
6088
1405
809
8699
2029
5730
2650
11577
3024
11701
10276
5235
1702
4194
61
3465
4792
7897
2094
5464
9973
1880
3379
10934
5882
10217
7834
2287
6556
8810
7195
4343
7933
4868
664
2906
1046
5371
2404
11288
7535
1568
462
743
222
7318
10659
3334
625
4345
6339
2188
2177
6759
9464
5611
9158
438
4209
5239
353
3952
456
3650
6425
239
7601
10498
7864
5211
11680
8497
8426
7307
4224
1018
6775
8416
1760
5952
10373
10021
1103
10590
7367
4398
9189
4245
11073
3063
9517
8493
2947
10824
10908
6712
11129
4415
10286
11005
9852
9937
8759
1034
2264
8557
4339
9211
3473
906
7728
8454
7978
9906
8127
10223
2286
11339
8439
11711
8368
5064
7754
5359
3378
2900
1721
5916
5996
3184
7268
1824
3080
8269
3023
11623
9513
1901
3745
3595
1918
8081
5425
1569
6808
347
1242
420
4562
8938
4441
9054
9622
9051
10562
10303
1031
4604
6550
9531
4896
7645
4040
763
10504
7442
10451
2484
1222
11138
2134
2423
3578
6452
5513
7258
10415
7821
8084
1575
509
11350
6013
8863
2304
4317
748
6890
11353
1259
3077
5583
4004
11525
3323
711
8612
10780
3399
3522
6520
1372
712
8060
8751
9327
5294
7890
4608
8728
3470
9994
1482
1489
104
7572
1794
6888
1821
2386
8183
6690
4779
1741
1658
212
5168
4102
10683
3058
323
11132
1097
10425
1359
334
7962
3110
4417
1613
5412
792
233
7675
5015
7985
209
9475
10171
5306
6245
4700
7566
3445
2413
4215
7204
4743
9139
9618
871
6758
1263
1618
11412
6851
5905
8075
8797
5216
1220
5516
1765
10269
2456
7433
7660
2001
1513
4772
2801
9003
6654
2523
4081
7678
9071
8424
9443
9843
3078
11121
10544
9375
9560
10163
2110
7210
2375
9008
4080
3704
3615
7453
5701
10005
6762
3523
617
3447
9728
9620
9529
10618
2652
7348
8504
745
11576
2004
7201
10914
11291
3047
11097
10465
1336
11649
5582
5121
6400
3898
4609
3285
5129
6794
10891
1313
4375
11460
4030
2903
9770
6834
3333
7405
11616
8181
3053
8814
976
8206
4950
653
9562
2269
8694
9052
9537
10566
6669
8323
10844
7288
6271
8387
611
11505
2114
10548
4829
6693
9686
3166
2602
10148
511
9293
6114
3015
8935
8948
3794
8817
7508
520
8276
6663
6743
11148
3817
10511
5550
6298
11707
9453
3851
1109
10483
9929
1038
4162
20
5332
4148
7540
8822
4519
934
5006
7281
9145
394
11254
1737
2165
561
3069
8809
10892
9381
1162
5960
4329
1729
1527
10761
842
2930
6739
58
5149
2865
3710
6366
2291
5908
83
5140
6973
1945
1649
4170
3608
2724
6714
5384
414
11223
2450
6522
4819
4439
5747
3688
4308
7389
11232
2907
10791
6418
3538
2133
1897
7438
9044
8703
7216
11401
8055
11776
1817
11536
1937
337
2335
5718
2072
5403
1726
11803
1047
5120
7551
2815
10029
9487
2320
5186
9515
4730
3386
5386
766
2861
4867
3833
1144
9745
9659
2510
4614
2273
11554
4092
5928
7467
5156
102
1989
4176
4685
9544
828
8617
1672
5762
10863
8066
10539
2856
9894
3975
7895
2275
4373
7401
10650
2045
6560
4403
9557
1295
5497
591
4105
221
11473
7907
11273
7492
858
4553
6779
6501
8603
841
9820
10328
5496
9128
994
6158
10210
1554
11811
7814
5414
11128
6842
6464
9220
2848
6014
9666
2513
8136
1463
10324
6386
10620
2835
4707
8327
2233
3050
10471
11024
400
4634
4740
7964
6022
7977
6179
5008
1023
3298
4026
5180
59
4684
4315
11419
8059
7656
1328
9802
3351
4844
5365
3279
10069
10168
5092
11255
1550
1009
8743
2554
10255
1612
2737
3455
5270
10213
11469
648
10809
2862
879
4464
4688
2303
6072
1624
550
10860
8885
7680
4303
4237
5961
211
9875
5517
9481
3232
5556
6201
3543
68
1438
2515
2868
7937
6389
9920
696
9466
6503
7802
6253
6967
1314
6590
6306
5398
9494
4879
12
6532
818
11551
7969
1346
10219
453
6095
11449
1656
3457
4123
10318
10027
37
8090
7039
1043
2908
6319
940
4191
5441
4671
9115
7416
5890
9291
6959
538
11160
7579
1400
5716
10527
30
2267
10232
8999
4313
3677
2470
9932
4602
3827
4826
11702
5288
1092
266
1108
9050
10689
3229
9570
6778
5286
3319
6594
1739
230
6965
898
11477
7174
7900
10283
9608
5572
8847
1563
9623
8537
3071
8191
11578
9822
3433
8304
9367
10564
10956
9147
6210
6735
7588
11241
3573
4635
9010
4874
3375
2840
11309
9590
10463
11443
6221
10856
10762
10888
3614
2213
833
8627
5639
9433
10444
2111
8671
5527
10707
1743
8542
4480
5279
9210
10675
8883
8270
2543
930
9836
1197
7130
6601
355
1429
11624
3095
2991
8147
8367
9379
1153
8483
332
8099
2769
7756
1598
11765
8346
5225
964
11195
5770
7868
2698
11790
4012
1483
1395
9063
6727
3281
7942
1426
2544
5210
8696
6529
2885
5862
7669
3070
2178
9349
11786
1057
8724
9707
9799
9432
2968
11550
3123
9479
1544
4746
11235
8484
4299
7364
724
7787
6044
11671
1127
7383
7257
11631
1586
5749
11245
7440
1561
4963
4710
8216
8157
8784
4885
7722
7911
5914
1808
2889
6147
6923
11192
9598
8976
3287
9772
6703
9287
2605
11642
1392
10491
10212
752
6820
3737
11556
9434
10082
3215
4913
6449
10087
1777
17
1770
1888
11502
1642
10062
11013
2316
3022
5963
132
9324
8898
3012
10778
4921
11118
9463
1095
5022
7825
5020
10580
6247
527
6159
3680
2002
11606
3872
168
3771
8254
5328
8086
7983
1919
3154
701
6399
4097
11655
4393
9165
7444
7012
9366
2766
8799
772
1298
280
3559
8903
10509
1352
2926
8301
9791
1287
4129
11805
9680
11700
5692
9536
2013
5245
10829
5024
5050
6137
10993
5459
2147
5379
5790
3033
10272
5478
6372
449
5519
9897
7632
4536
6606
8117
8661
810
5220
8620
5817
5282
6027
2073
8242
10345
885
1477
1790
8188
2008
6069
682
3895
11052
5861
4165
57
5812
2399
5903
11387
1468
1416
6785
2358
6673
4484
10068
10012
3869
11328
4156
4257
8343
9315
1055
2281
10633
8177
10671
1075
1115
3936
3533
10861
460
3032
10522
1452
2149
319
1922
8223
10494
5173
9546
5480
2129
4610
5677
9684
1052
5584
4067
1456
10409
361
11656
3145
5561
11590
6004
8241
4279
7089
540
10121
6101
10662
754
11685
2003
2542
5537
10704
5027
100
8132
601
10533
5665
6969
1044
9168
1557
1487
10857
7609
2115
8331
618
8722
11188
3396
1600
11491
8287
1615
1752
10398
2083
4993
8495
6961
9669
8842
675
2545
9834
3999
11218
8011
5350
3609
11142
3787
2225
6843
5653
1126
7267
8639
2441
1322
1603
4210
9804
10170
4065
10259
11043
8402
9630
4071
1507
1559
5200
10821
8280
9636
4843
1836
1354
6050
4759
10418
6822
4032
6554
9625
10078
10884
2251
1025
11729
5322
5042
7704
3397
313
7188
8538
8726
7443
4638
5157
2970
8991
11113
3885
11348
9229
4793
9030
4336
6613
8899
5709
9251
1840
10732
10384
3673
5026
11787
3320
2272
4254
847
7764
5822
9088
7998
9141
1417
5003
3848
604
5654
2078
7169
2311
6074
1982
199
485
3270
2823
3245
7957
5181
3749
8201
5224
9651
2794
4541
8098
8165
524
947
9136
9377
1280
122
4420
9422
2302
10657
10615
1005
3460
4352
8869
10610
3055
3566
4418
2132
5979
5262
6482
229
5985
4001
10833
11264
6415
3007
9962
4221
9482
6393
6421
2750
7968
4899
2944
4549
2718
8297
6702
6634
11599
6618
4161
10065
11641
5609
9727
11609
10369
10461
5786
1017
8685
7047
1928
350
5875
11036
9484
9129
5795
7080
564
1582
2175
8062
7567
3933
2707
11666
11545
3535
5196
7100
6572
3739
9253
821
2063
7800
81
7434
2697
831
3826
9931
2833
7481
11102
7741
48
6360
9641
6754
9049
5627
10312
4095
2689
7573
4438
7132
2373
8701
2758
7068
9228
10705
8390
3880
7463
5723
10836
5087
7727
3945
9340
2164
2886
4907
8559
8171
9225
11403
172
639
11362
9144
1143
8518
6922
9892
1832
7187
6334
3686
9486
6194
8618
7111
834
2486
8850
7981
10837
10996
10412
6576
65
7272
7346
7908
2024
7414
354
5703
8573
9583
9285
6057
10740
3127
9459
309
9471
6120
6507
4354
7666
10937
7182
4526
2583
8137
2770
8528
7936
5526
3209
6568
3905
6045
5481
9779
2379
8253
6053
4169
5706
3428
4421
1101
5857
6152
11265
11306
8578
4140
3557
6662
118
2022
8326
4561
10234
5360
8500
4682
7724
4273
5900
87
4816
3382
7495
403
3350
9839
4742
8351
2241
8444
7349
1027
11466
5733
2436
7807
1278
10645
11603
1425
6436
1502
11510
10116
11705
10135
678
8239
5431
7320
5524
1070
7702
2480
9819
3392
1099
11389
7315
418
10383
7707
1947
3336
2299
7103
9057
208
7055
11267
5146
528
779
722
6870
1860
10014
11294
10003
10711
1992
2332
7369
9288
9751
3459
6781
10687
6526
6865
4518
11663
9845
257
9014
8953
11395
9447
9808
3625
702
3189
503
10414
7923
11566
2248
372
4052
3937
11689
4076
997
4332
1176
11445
551
4372
3497
6321
4679
10244
6648
7545
6363
11336
9370
693
2533
3443
982
8203
11120
4222
91
2266
8481
11370
261
3337
7283
7252
6435
445
3555
2194
9090
6681
2867
2526
7538
5221
7847
1168
4144
84
3149
8482
880
6533
5304
1467
8650
6730
10114
4326
4044
4137
3039
10450
4872
579
8300
9390
8539
11503
7899
4157
5610
413
402
4428
2084
3057
8860
164
10538
4302
7209
8844
3317
9476
3934
11476
1334
10802
753
3064
706
8019
4573
8626
3151
3799
4022
1074
9530
3438
7146
11484
7150
2429
246
3815
5340
3632
7591
2262
2246
835
432
10625
1173
6700
4656
7013
8733
8221
11560
9841
11270
9695
3407
2729
11696
433
5147
11269
10735
6829
7144
5545
8836
4002
7505
1332
7372
5061
5153
1443
6577
7768
8143
11429
10098
11572
2569
8470
4277
3666
5623
2446
4842
3657
9542
3172
1223
11768
7699
544
1204
9301
9934
10753
2637
11439
11258
11317
6008
10296
877
9592
196
11515
3383
4379
8146
8479
2997
9595
2571
5503
10721
11071
11314
4711
4163
7211
5331
8892
2682
9703
2508
6795
1510
9445
9656
1244
5195
5955
10410
4121
8576
8414
6341
6096
254
11454
4511
6504
9754
759
654
7371
3401
1420
3044
2830
10293
328
253
7354
4377
3019
3029
2636
8748
6302
3018
2945
3659
10920
6847
5727
2663
8265
1362
6085
3481
11378
8674
10006
4985
7844
2880
3381
1302
6875
4836
5729
6940
5035
7337
942
3235
3257
7637
8761
176
435
6545
308
1565
3964
7877
6232
10366
6442
9673
595
10743
4625
7767
9821
2623
4572
8978
10807
231
179
737
11354
10631
10487
5824
7198
5852
1321
1995
5969
8278
5781
800
8963
9681
6930
69
5972
7856
1680
377
1469
2603
4181
11230
4505
4230
3091
2726
477
1329
2283
3732
11773
751
7770
6830
873
7305
7248
4564
1545
739
10110
2683
10045
8746
11745
3518
9254
2354
9971
7370
773
11512
10408
9357
641
8421
8816
5763
7313
4309
865
9926
11302
6906
11682
6939
6726
7731
962
8777
8144
8289
8952
3309
2166
363
3723
2825
3597
4726
546
2940
471
1641
7598
3338
7406
1172
8441
5009
11475
10056
7532
5099
9837
10100
1410
6765
6805
10485
9125
2694
815
2131
1797
4575
3122
7500
4275
10930
7771
10703
10008
7019
237
1532
11124
7990
3410
2831
11462
1535
3879
8013
1299
6543
9250
1480
2793
6814
11555
2329
11171
5278
8052
10724
3661
555
4825
1163
6995
4715
397
9193
7411
10391
8388
9523
10576
723
300
9923
7199
4294
5070
4185
6081
5202
11617
3142
5767
3205
4955
4582
10701
11307
9279
11292
1152
1212
4503
9704
11573
9311
6769
5958
665
10649
642
10917
3767
4272
5273
786
2857
3202
6761
4187
8091
8049
4824
2905
4626
5680
996
5920
8462
6307
5544
156
9505
3085
8247
1552
8771
7185
3795
495
2321
5982
7503
151
6280
8995
7603
8000
1738
3001
10919
11741
6502
10640
2883
3720
8116
10073
5405
6032
7149
2276
4823
4704
4461
343
10955
4136
8534
5909
5980
2223
4196
7883
5176
8215
5081
6866
9902
10794
4734
6330
1465
4593
2234
6495
3903
8031
10944
11234
10127
11221
7067
4151
8665
2121
5218
5012
9364
5820
3161
2630
6839
10051
7633
10601
1203
10374
616
1926
3114
2641
10594
2562
9431
2728
8629
9385
2126
6020
9738
6489
6956
805
4694
10031
5880
3140
4280
8931
7826
7076
547
26
10411
3918
4486
11402
10563
1221
7018
2548
11186
437
8911
10338
1861
2699
8263
6512
2481
5605
9961
2706
6146
326
5135
2499
1004
9423
8975
4011
10565
534
7410
3960
585
9733
8235
6216
10666
7836
491
10712
7465
5547
6621
9284
3548
11040
1916
3185
5378
1910
11163
5948
1133
7924
6810
2518
11398
1317
4368
121
9066
2449
5664
6077
2601
1522
7654
2173
3283
4554
3605
10180
8858
5438
10714
3768
6670
8022
4038
3502
1407
4631
8293
6466
4935
6861
2579
5385
3269
11287
1867
11709
5792
2521
6234
1820
10667
51
3888
5187
7689
3577
4565
9729
9214
1858
7854
11260
4961
7037
6920
8499
10898
5198
6885
425
4284
7920
6112
228
7289
2741
5137
10331
5785
11724
2921
7963
9958
3653
6407
5751
1128
7134
2331
2208
11181
10514
5899
3153
6237
9270
8440
11347
4990
2374
1632
8943
2298
7077
4252
6914
2721
9037
11141
11424
7751
8774
7953
5662
5094
11760
9317
7583
10556
10252
2550
5938
11170
938
8104
11698
7541
11489
4852
2644
10323
3165
3639
7871
8450
2061
4645
6025
2812
11086
10200
10623
2549
8345
6791
6021
8540
4174
10340
1024
4848
5636
7589
1951
9711
351
6792
9286
4797
5461
3662
9942
4657
10172
3150
6029
4813
6186
8342
5143
2939
4510
1340
11074
1391
7118
6487
11373
6178
1583
1412
5771
10337
2256
8763
2212
2622
7454
5417
4938
8641
3624
11400
4267
10613
463
1754
7852
6177
5924
7053
378
3106
4803
1335
10394
11452
2716
7021
6119
7113
9407
11238
11535
1811
7017
6453
1894
8732
6143
11037
8156
1189
5194
10983
6608
7599
3454
7439
5613
7735
5652
8819
4613
3992
10928
1030
6651
2220
3774
8401
9164
1755
9137
11140
4327
10089
110
8074
8773
2917
1515
11162
10887
10699
9933
2263
6597
11783
10028
11652
893
1490
1850
7602
324
1215
2933
4689
8752
8762
10137
10846
11490
1129
10066
2918
3084
4588
4304
2795
5682
798
734
5707
2244
178
8193
8970
1174
8207
1831
9871
6030
9495
1781
3201
198
10480
4087
5193
548
3339
11146
9573
6517
6679
2532
2314
8740
8541
9744
5595
66
5127
4712
5214
3260
5033
2572
11619
10041
622
1681
787
3332
6510
7934
10332
3280
6657
10775
7853
5720
10214
515
478
9563
5992
8069
2647
9688
5902
7525
1033
8910
2598
5814
9545
6387
344
5521
7093
1871
10442
11479
3986
11349
2888
7719
4623
4818
220
10855
7620
10676
10751
9935
6699
4016
5769
4248
10811
9602
9901
6071
1264
4241
5931
10737
6876
10845
6604
10169
2881
1677
7781
901
9039
2296
3402
5885
296
10375
4153
9605
10076
27
10424
8757
3829
8200
3248
9363
10288
2580
6180
7708
11290
1370
11644
8961
11816
5551
11369
5254
681
10997
4775
5422
3159
9985
2987
4908
1882
6475
10827
1940
3296
3534
3729
490
1181
1375
5014
8023
8413
626
4758
2112
8159
10389
1767
8670
4180
11584
11054
1462
2887
6188
684
4539
4514
9526
9302
1366
3916
11583
2639
11178
5602
10669
7050
8180
2300
4787
2938
5659
7991
10226
7051
1979
3803
4534
6380
6075
6417
6649
8875
4800
2280
10879
5816
4469
5133
7233
998
4130
5266
8341
11588
1784
3182
10236
494
7625
10600
5836
2860
2038
4041
11358
2897
366
849
7297
6209
7533
10545
2653
3503
1541
5840
10473
322
2031
7363
9928
813
2528
11078
10960
10864
5274
1079
2226
9236
10790
9697
2705
8851
5964
1164
3261
11627
5883
1450
4229
3862
2936
9548
3917
5487
6880
9632
1723
9429
7685
4056
11236
2999
10656
1231
1514
2313
1451
10032
8037
10071
4321
8410
838
11712
6496
3899
10037
3567
10945
5452
3087
7578
10986
4546
4692
1714
4270
339
8790
4086
8134
9616
8806
588
3365
2670
5515
3589
34
28
2395
9750
6338
5506
6443
2170
9732
6561
889
3878
3322
11103
3514
6206
9853
5673
9174
3733
10393
11183
11474
4528
1654
8113
7075
223
10184
9919
9803
4239
1590
8296
3256
6500
8514
2181
8039
8839
9440
6957
8939
8826
4817
10372
6349
1209
6051
421
10330
1706
1158
2306
273
171
3956
5606
8608
4865
6832
3188
1725
6110
7955
1564
1782
843
11045
9376
904
3494
11428
7194
1547
2080
9034
8859
6312
3985
8552
7376
8423
9150
9683
4677
3820
5209
2646
6258
11677
9491
256
8968
4350
8347
6551
5923
2155
8638
10501
3715
4057
8654
9796
3622
5648
6273
3102
558
7104
7085
1436
507
5275
4472
1869
5663
9421
5930
8267
755
7628
4050
7396
3836
4386
7796
2118
10832
729
501
6076
643
9335
1539
8398
1211
8727
10771
672
4915
6070
3377
4476
5615
10381
1464
4745
10540
1192
3793
1872
3590
3158
10254
505
243
5678
506
9755
8768
7822
6480
6567
10142
1773
11598
7958
6903
9657
797
3618
2381
2829
6978
11011
10326
4633
312
746
3569
790
2476
7940
11020
2570
5753
7701
7974
7335
4355
2163
8683
8516
380
10754
1292
1912
6505
599
3892
4141
5540
1652
11237
9318
1893
1944
3395
7706
4362
11543
375
1966
3957
10365
4423
5351
5696
1243
7502
9533
11421
10149
7452
1471
3346
4522
2657
2853
4506
11198
10616
11549
4045
4062
5326
7299
10074
6750
4306
5139
6858
9880
8526
3990
1049
3823
7507
9469
2035
4039
11098
7301
11055
1972
6713
2099
1499
5205
3512
8288
652
170
4085
242
11453
5798
8018
4371
1644
5594
2756
7420
8891
8452
5231
2076
4103
11295
3996
4801
5968
6817
6889
7276
9790
7242
11076
6664
7530
5849
6300
9824
4661
4078
6054
9978
5974
640
1270
2778
7524
4932
6060
1985
3861
3480
1534
325
5764
2338
3980
8887
8756
4054
2237
5229
9022
4571
11425
5474
9982
864
11368
4942
7747
6010
7317
371
8489
7808
8035
6650
10292
8249
10970
9243
11397
7785
5830
2364
3213
5456
911
10682
10301
3789
8651
9950
5581
9712
9518
10080
5060
1423
11585
479
662
9741
10609
9603
2988
1119
2776
4535
10490
7816
7030
10605
9277
8406
5573
6135
5269
4427
9221
5247
6723
3981
11299
11249
2893
2669
3977
11064
279
9332
9404
8744
8974
5197
8128
1694
10525
5018
6133
3479
5554
4416
10999
4155
4883
5807
3809
7498
10195
9428
4296
7582
4683
9944
10840
7921
5593
2209
9753
8548
5402
9261
4563
184
6756
9006
4516
2350
553
1397
1384
9734
9648
5856
4903
297
443
8102
5215
9171
9269
2077
6017
4751
10719
2229
2842
2537
194
9798
9191
817
3367
6310
2578
1131
8849
5505
7319
9706
10626
320
1371
4042
6478
9149
907
305
3950
5529
6631
10499
8764
9730
8916
8361
9922
926
244
15
143
5983
2363
129
1161
9757
11571
7284
8825
7255
9480
5458
6676
5308
1876
2488
6685
4479
1182
2525
7542
1170
10264
2182
11276
6403
8681
7219
3371
9581
1859
6835
7441
7466
1878
6840
3588
7912
3121
387
1311
1032
9462
7627
7435
7302
4936
931
6962
4019
691
7464
5987
6364
1909
829
3498
2081
10592
11155
44
3939
7407
10317
4319
2965
3969
1187
10577
7475
9069
284
10481
6308
4159
3092
8015
4556
10634
10077
4323
7740
7496
3364
1404
3195
10058
7222
969
9601
3734
925
11220
8587
4725
7917
2851
9740
7292
5956
519
10472
9946
4471
11032
4348
10606
9500
3626
1789
9781
2059
8936
10477
4013
6006
1902
6215
4686
9613
4922
7886
9378
10291
75
2345
6447
7712
430
4586
5483
6948
8012
7090
6853
10152
9073
1553
5874
240
783
9826
3066
11526
977
4905
6264
8866
5695
2941
6660
7565
9456
9718
1620
5642
11807
2146
1801
2095
11047
7388
1357
9594
8731
9873
6729
9615
3565
11728
10364
7655
1609
3096
10679
2415
2017
2971
6424
4125
5846
5375
11580
11326
3246
124
1106
11034
7477
840
6394
9309
5649
10814
3341
598
2123
5512
8294
9304
8473
8990
11417
5999
2197
4051
1216
3362
2501
725
6934
978
808
9420
1475
8881
9574
7779
4906
8273
10668
4930
4542
3962
9177
2671
6902
1235
1225
1764
8469
7460
7772
7163
11031
3217
5737
287
7058
2966
3164
8314
10500
1657
1975
2397
452
2710
10819
8447
3681
422
8336
5316
657
3301
10297
2845
4066
9265
5244
1001
4198
2418
875
7447
3847
961
1580
11670
10396
2206
4266
8260
11719
4231
757
4866
5406
5313
2284
8745
8610
5507
5309
8868
4827
7120
7105
807
3907
6141
7244
9399
1956
2445
8231
10419
8396
9647
2402
8520
1073
10203
3398
4240
6524
5436
7366
10043
2091
4527
11810
1698
8832
10215
9216
11800
8864
1003
10742
9832
8072
4651
9877
11091
6156
1485
10902
5368
1411
6289
11145
10726
7559
709
6926
3603
985
3076
6169
9075
8255
5077
4101
11208
2722
11061
1268
2462
7688
268
3580
4750
7534
6946
7259
8167
10531
2821
7649
589
8282
10612
7399
656
9593
9359
2037
10378
8558
3758
6151
7386
2028
8848
677
8092
1232
5454
8852
9895
7078
4856
10725
2432
10733
8382
4647
8455
7108
896
1611
1587
6686
10889
7752
1719
6984
3806
11444
7792
4701
3961
7626
5557
5564
9180
9992
6087
890
11072
11278
4006
4939
9383
8525
5898
6173
8923
5819
8834
8097
2799
9629
584
3268
3932
4965
1260
8274
6199
6692
310
1716
6950
6009
2052
8236
4668
4298
6646
3783
1008
9856
2185
3623
11563
6921
11431
8375
7793
4834
4059
4756
7139
90
1987
470
1326
7879
9502
2117
2937
888
983
8940
8517
10158
2925
9974
3214
5884
2341
8498
9117
9604
8422
9334
11488
627
7709
4947
5080
4244
11714
4765
1601
11342
1269
128
9452
8237
1711
4182
9627
4235
7306
2398
10570
8709
7646
10460
9943
1186
8317
11570
11482
1977
5314
11681
4247
9368
915
1305
7670
3049
7658
6653
11247
1273
5698
11110
2796
6797
1398
6615
3358
183
7109
8303
8574
9451
3563
8960
6513
4567
9256
6603
10602
2656
9801
4305
1961
4992
4891
6138
5815
5869
8547
6395
11197
6226
8917
11784
8397
1251
3176
5072
3359
7044
7698
9172
8657
10619
3289
10661
10315
3190
7946
9389
1051
4069
7145
3218
7810
272
2042
4763
6994
7323
7445
1086
11687
8523
7692
2186
10462
4322
11357
9412
5831
10295
7760
7197
11058
4709
8095
9626
10102
10964
3478
9029
3924
1748
732
2553
7677
6951
8753
2662
7647
8196
3113
3303
6250
1344
10392
1690
10632
8628
5048
7092
3308
1504
10812
1806
3871
7824
3791
5217
9635
11246
1067
8256
11213
7915
2696
6451
1848
4512
10911
2431
7336
4660
6622
3435
7859
11082
142
11356
5586
10354
11628
7782
6804
6749
6100
5290
8309
3409
1117
8588
1756
497
7065
7290
870
3357
912
721
2805
11744
886
11340
8692
9812
9072
1520
10496
2746
7975
8214
314
1799
327
10475
4204
5850
6129
5447
3129
1996
8794
3968
8063
7753
1973
336
2764
11630
275
2985
7945
4620
6531
3477
7377
3558
8986
2809
10760
4861
2334
8583
5246
3416
307
3908
10495
348
5918
826
5296
11225
9512
4482
8682
3682
10489
9896
2053
7630
11355
71
7746
6855
10745
6751
8972
10162
9644
7717
5356
1666
5570
8419
52
7682
6263
1445
7360
9132
7910
1695
2892
11813
1574
10108
3203
4405
1630
9936
1881
11717
5112
5708
5074
5509
10422
11199
848
2924
8420
8225
2877
6367
9571
186
3779
1830
7148
2959
11035
9100
6904
5446
6587
1234
8291
3915
446
8781
5839
844
5201
8108
7277
9354
2440
3103
11068
4774
7949
8131
6094
1294
10673
5518
11413
5067
3442
9969
9427
9842
2837
776
11481
11089
6324
2153
5558
4920
8635
11215
8355
3136
11315
5462
10630
11169
3183
9809
1943
9406
3199
8977
1289
4581
6335
2500
10552
11275
8818
4106
4126
9689
6933
3966
1879
10025
10984
7615
5457
7243
3587
10382
3865
2148
4131
1036
636
7749
4134
7518
1083
6711
861
5212
903
191
109
6026
4455
1942
8176
4331
10458
10084
5927
2040
9166
8871
7563
4878
4659
8014
5001
2775
4145
2323
762
5921
2617
2411
1094
6065
1546
4589
6034
7862
6953
3135
7988
5040
10885
5428
6523
6419
9122
3805
884
2654
10445
7795
6774
10371
10895
464
1257
9336
8513
4274
7074
5192
5630
11446
6231
5300
2202
10542
9758
1262
7523
7212
975
8480
5866
4925
941
5263
6582
4723
2387
11496
5021
7129
4391
5148
11165
6803
3221
3882
7726
11153
1610
3875
5953
2789
944
10521
1857
10240
4108
5213
10709
3255
2690
8093
4627
8833
1319
8955
11674
5162
11600
9960
10765
1135
4529
3475
3505
4749
2477
11075
7925
7086
8715
9176
4501
7528
11657
6336
6982
7231
8824
1874
10052
10129
11152
5096
2904
570
1448
3414
9538
939
10258
8649
7797
9416
5841
6837
8624
3226
11513
6332
3978
4383
5834
9356
9061
3539
10782
10581
10502
9372
5681
2827
5780
3634
4996
1338
3262
8640
6838
5089
5741
650
6039
2902
2258
11692
5395
7082
9203
8384
3521
2730
7729
4478
5660
1596
67
2584
7653
6281
3196
11070
5327
10360
10346
1258
7436
6350
10059
991
3504
113
919
2509
11112
165
6741
7413
10088
8550
4603
8708
10042
949
4594
8040
3770
2506
5107
2850
6000
9212
11791
7549
9818
4446
5794
9611
4460
9716
2505
8956
6623
1114
6942
9909
298
1675
3347
6170
2735
5669
9449
4988
10624
8178
7431
7425
8229
4325
4172
8261
4550
7801
8488
9460
2103
5336
10311
3759
9341
1837
9924
9813
11173
5710
607
4500
7036
1093
7634
6718
8511
10585
4487
160
203
6483
3940
8602
6103
4933
2934
1814
2435
1230
11731
3046
5705
11409
9621
10718
3988
4251
6111
6828
9123
8151
6204
3293
4034
2725
4290
4334
2552
3877
6205
7639
7919
6879
7485
4753
4886
857
370
6539
9881
2561
3801
2640
5455
9209
4490
2347
649
6859
2781
8192
10086
10251
8750
7207
5944
10308
615
9966
2575
53
8449
3340
8982
1705
10698
9830
10950
1493
5876
11772
7926
803
4953
1812
9020
990
2774
9292
2448
3513
11346
9912
219
7794
1288
3163
4678
2618
3612
43
9458
8791
9565
3792
3571
11792
1503
8020
11614
3439
1892
11388
11017
8983
5255
1955
11207
5167
4814
3575
6460
1505
8184
670
6491
7048
9690
10520
1085
897
3306
7766
6239
2666
3193
2890
6003
9242
7995
2621
8565
6202
9133
11009
8284
5813
2
5970
2370
3804
1769
10039
9951
6079
531
10182
10216
6476
6977
10532
10007
3120
10653
6259
731
3406
2339
5991
6328
2798
8205
2565
2581
11338
8776
9455
9260
383
10598
11187
1255
2104
10980
9805
8658
10806
4994
10591
11761
5057
658
4434
3484
11216
5318
3816
6773
8042
10848
2546
9000
6479
1621
11133
7260
3904
1847
10515
1096
6811
9678
10873
11203
5499
10924
2463
10437
3700
6684
9048
11610
1788
250
6314
9197
3645
1776
192
820
11377
8025
9085
8026
8370
4400
10239
5388
4166
8122
11057
4951
2687
4390
9948
3388
4927
8793
5552
2607
9245
238
4015
10943
2977
8021
7744
8663
11703
5473
945
8846
9373
5097
9776
6055
6473
8840
8158
3552
11779
3360
7342
7811
5628
2410
5783
4507
9983
3982
8166
146
9275
6901
9509
2294
2253
7178
3611
5353
1736
8222
9360
114
10467
6126
7948
11194
9807
498
7081
6559
6378
4733
720
7581
4384
10447
8560
5725
3089
9079
10154
484
4545
596
10734
10420
11562
5164
10798
1647
4590
7539
10595
6815
2700
9219
1700
10560
5404
9990
2773
2942
6968
6557
11361
6219
2512
86
7593
2308
2677
9693
9671
10336
2594
11200
9572
1029
136
6972
1236
7024
6240
8400
2854
4409
7529
1200
6121
4717
11243
7556
8698
566
9120
5933
5430
5868
6296
3927
6195
8339
9319
7960
10390
9425
3606
10526
10772
2330
3515
2187
195
9118
7966
5059
802
7762
5715
10133
2668
10872
6598
241
2068
9401
11334
10334
644
11077
5103
5460
7205
1637
7552
120
5873
2981
5069
3074
10543
7296
3278
7131
2135
9599
4970
11010
134
4351
7381
6915
5324
8283
11392
10403
2559
7829
62
9411
11756
1358
8664
8575
11157
3697
2467
679
2041
741
5307
6266
8798
3641
444
11521
11323
3258
4663
1873
4744
2596
1717
2912
2843
4027
5488
10196
7786
4485
2556
10925
6864
489
493
690
9930
3821
602
1911
1014
10828
869
1993
9186
3757
6647
10054
2366
7610
5283
4370
2686
1573
1361
8515
1526
1327
1629
11511
1551
9893
11586
1337
3901
3010
5041
10427
2250
11250
8655
5039
2346
11688
5485
10476
2784
5694
5119
5166
5555
5599
1134
150
2804
368
2086
3751
5612
2259
4017
8376
1064
2424
4138
3856
859
5367
2962
9696
9715
10111
4739
10146
4462
5528
10017
1364
10438
1779
11750
4785
2101
1818
369
4937
2704
5285
175
6405
9585
7071
9255
2093
11341
10035
3491
7817
1920
82
7331
7304
816
10156
1091
4396
2928
5568
283
6124
4120
9419
609
2915
1813
1271
7034
9591
11343
2994
9025
7482
7246
8965
6409
6104
9800
2642
8668
10351
4508
2305
8630
9899
4195
5562
4840
7493
4655
9867
9642
4168
3849
11632
9913
5253
11812
7061
11325
7476
5533
8001
2414
3554
4691
4498
7275
2195
5045
2600
6163
6373
1518
4764
4314
3366
7606
6058
10435
8688
6309
2633
7959
5755
5633
9668
5922
7512
10992
10387
2434
7162
9764
3275
8944
10571
6064
4520
5587
3545
7249
1988
8302
10404
5531
5444
7737
517
8374
6160
8878
10723
9543
10319
1415
4664
4456
2761
6974
6481
5911
10663
6547
4855
7644
10466
127
3474
6358
11303
4310
9297
2438
3765
9756
8246
6432
8198
7846
9107
11544
1473
10597
6340
4821
18
3560
3951
49
5437
11693
8598
887
6261
7236
6989
6043
2616
516
3168
2949
1424
139
7450
1924
2378
7732
3197
5131
112
8160
10249
10376
4559
4595
5329
3250
4690
9205
7951
3277
4068
4408
8403
10139
451
7262
3731
7256
10572
4986
3663
2763
8721
1855
999
389
6426
1476
2240
10793
8112
992
7032
4997
3922
2972
6871
10441
4769
1293
4173
2535
10784
1907
11214
6033
7619
1151
1567
3171
7106
4160
4287
2230
174
1903
8697
3408
1538
2292
1363
4357
5260
8845
8993
680
9355
3664
1661
508
166
11646
9854
7365
1914
7263
11384
11520
7361
1104
9280
5310
8949
5754
152
9398
5679
10788
3551
3722
4538
8821
1991
10400
5141
3811
10280
3450
4591
7352
205
6680
2749
1849
10706
3240
9396
3109
5934
5810
5634
4307
3156
6534
11313
9793
3832
10287
4776
7997
4276
8412
11337
278
6771
7415
3252
8459
11105
289
3075
10185
8385
270
4570
10363
6696
4316
3180
1422
8275
9343
4557
7812
6297
8672
11455
1132
6242
8988
11066
7423
8622
8530
5520
10277
8879
3786
8811
2161
3008
1105
8741
692
4956
8307
4369
2765
3929
10413
11607
7778
628
2451
3824
10603
3743
2176
6689
3318
10385
7432
2787
1196
1676
3947
7618
4444
5722
10010
2369
4967
2217
8148
3326
11766
3583
11548
11608
3619
6217
2468
8277
9993
5973
3667
5158
7594
6976
3423
8199
2409
3212
5366
8812
6593
2895
10880
3642
8729
11042
11448
10587
11704
5451
7160
7866
2743
4958
6474
7888
492
1116
5637
10370
11661
8772
10854
6589
10710
7557
9972
5241
10915
2783
8718
1696
5685
2295
5939
7763
3313
4781
8350
8823
7605
215
6707
10197
10786
3483
7006
5102
6599
3764
6410
8979
25
7659
10294
10869
10179
6683
9722
9142
11399
9786
1102
3276
5345
11465
8386
8596
11808
2207
4552
4402
7395
3718
972
4579
6516
719
6155
11143
2803
2566
4025
6198
8224
10433
4063
2792
2222
5818
3866
8568
10801
3227
4214
3923
9436
1401
7703
4979
3253
10191
2661
2158
8088
674
9012
7011
8700
3841
1815
9835
11622
2100
11322
6708
1673
4213
8613
1548
9215
5184
1461
11090
3220
10818
7170
7430
1751
3976
8353
1772
2016
2005
3893
3237
4424
2257
4072
5574
11231
5355
8418
6093
7935
9582
1519
11753
1378
5672
2587
11538
5621
9345
9737
5842
7122
5832
4888
5904
522
8043
3607
234
3796
6318
7094
1948
6361
6091
10730
2224
5571
4523
5793
10377
5738
2624
4728
7818
11713
10768
8813
2437
6056
6352
3167
1809
9577
7161
5086
9532
7016
9232
4945
6046
10936
6919
5590
7226
1228
9124
6846
8244
6555
159
1589
11625
11205
11184
11025
6687
11038
8922
7480
10939
1556
2828
436
5789
9653
1588
7398
2780
10608
5686
3965
4727
1238
2951
8644
9806
1497
6465
7355
7823
7547
7913
10530
5185
5647
11099
5242
2130
2092
5409
187
7938
3655
3426
9084
1381
9247
8605
7427
5037
4897
3175
10181
8448
11694
9700
2235
8068
4236
8788
9068
24
3363
1088
10813
2841
7537
7470
11305
4152
695
10839
6337
1227
1999
276
5929
2953
3637
3906
4778
5845
11459
4117
1137
2767
8182
9392
7661
8807
2490
11438
7742
3935
2384
8016
7084
115
1863
3119
4258
10904
2819
9033
8897
10731
4699
3802
6068
3536
3825
6642
10207
1946
10309
9043
9851
7269
9241
7929
7166
6963
5867
4761
882
557
9596
1207
7684
9152
6538
3211
3630
1708
8458
1140
3162
6207
3730
2660
1307
2567
2834
11308
2151
9239
3835
11456
9081
9713
5004
6626
1627
9468
11589
358
138
8491
382
8934
4857
10977
1439
946
5498
4916
8556
1932
2352
3236
9777
3807
1936
10517
4154
2416
9070
6139
785
6789
8036
8315
11177
5668
2172
2169
6628
4009
4340
910
6268
2309
6591
4458
7597
9102
11026
4652
6218
442
3415
10327
9080
9281
5744
1054
3699
929
6468
8767
1829
9159
9628
2011
913
7611
9731
9121
2606
4928
6564
10034
6
7835
6583
3361
9234
1635
1141
359
2070
3134
5160
6990
3243
2242
1474
10141
3259
4020
10432
8566
3500
2658
10443
1130
1819
7461
9290
9257
9658
7064
4318
4669
5476
11620
10356
1856
2282
10923
4008
6401
11726
10951
386
1628
9952
11014
7718
9097
11778
1842
2497
201
9501
3868
5054
5889
2702
7922
331
3808
935
1774
9320
8611
10803
989
5443
9849
6993
10095
5806
10322
10279
6574
3052
10202
8365
4615
3321
9001
6246
6048
3311
9213
11081
8210
3628
10469
1356
5002
9195
5823
11226
5670
3112
182
10464
855
9959
4912
10085
1800
10931
5482
9917
1968
9840
9638
4697
4987
4650
1159
9169
1325
9313
4796
6796
5808
11658
1455
5410
8333
2800
7616
10569
7815
4378
8921
9413
6716
3736
2261
7429
4005
2394
1185
2007
193
8770
5525
771
1478
1846
3740
7986
405
11268
10097
6317
6581
1447
342
7468
727
4577
3516
10503
9541
7156
7851
1348
660
1492
10070
5154
11319
2524
9119
10004
5374
3198
5717
9021
10746
11500
8259
11752
40
10440
6816
9099
9652
2723
10849
10128
11504
7155
9095
10894
7230
5075
7880
5394
10099
7789
11033
4088
1967
10617
10399
11332
6999
423
10947
11229
10130
6142
5661
9031
4596
2659
141
2597
6701
1377
3674
11691
6362
11063
4741
1138
7374
1787
9498
4646
7568
459
6115
8179
948
6370
4628
7358
5925
6040
441
6659
8831
9046
3830
11100
6144
10688
6344
1958
155
4578
1089
6049
10815
7950
1674
6763
9898
6416
2326
7096
10143
9314
6450
1715
8381
3831
6299
3348
11244
587
11248
2990
10962
9353
10479
264
9338
6788
10053
3864
6274
11581
3711
8438
1529
9701
923
9300
7329
4364
669
3604
5108
10638
5248
7183
2591
5906
6509
7133
2307
8804
3690
687
612
7167
11193
3200
6629
4135
1898
282
258
11135
4943
2822
3525
11561
5223
2285
6063
8078
4654
5000
6710
11019
8676
5416
475
2555
8087
7
6411
10823
10529
5546
2426
6744
11518
2274
1577
7264
3970
5879
9947
11101
7193
3867
11125
6823
7548
781
1749
6519
5774
2324
5055
10651
1727
610
4666
5413
8103
8174
8535
3750
97
6985
3137
1537
3648
1517
11050
4624
6566
2090
7097
6171
7521
572
10713
3062
597
6633
11139
7875
7345
6304
9497
11154
5976
8562
1938
8100
1753
3670
10550
2361
4260
5432
6285
9322
11182
9278
10105
9794
5591
1171
7927
9520
11051
9567
10822
874
2297
10991
2643
5347
9032
11736
581
204
7896
2014
905
631
8461
9850
1974
162
4998
4713
9067
1431
6868
10792
7710
7736
4283
7531
9418
3384
11300
9609
9848
7462
3331
6404
8895
2096
9921
7999
5017
8738
1449
6900
2610
1900
8186
3920
2757
6397
10237
2097
8329
11166
5624
9028
3471
8266
2171
10905
10847
8590
2010
11568
1283
11605
1019
8667
2810
10192
1651
11360
1169
6256
5469
10313
867
5093
5433
541
11621
6354
11030
3390
9507
11735
3959
6643
6841
9787
3586
10982
2563
5036
1080
5891
4966
2023
10614
7909
10304
7321
226
1013
1929
9904
5251
2179
697
1124
7378
9694
5110
7902
1778
9430
2634
7544
7604
3489
1037
9663
8505
2649
2979
2547
5132
2159
9114
6445
3967
1428
9938
2520
8033
10194
11662
448
10018
5995
9496
3727
7353
8553
6279
10559
7295
6251
5926
2460
22
2066
1653
8894
8706
1376
1724
3754
8652
4183
4082
8474
6579
4558
3537
7003
11189
11638
8789
646
6381
7527
11458
7165
9438
7697
11115
4875
10692
5341
7031
2160
685
2461
7128
6267
4941
5946
4583
5784
7569
10060
521
8714
3983
11495
780
9709
5607
5978
8843
3747
2196
8561
11678
4285
8569
6979
1827
9154
11430
2376
8551
3839
1246
7504
6511
5439
10918
8964
11485
5510
5330
4531
365
11795
147
1668
10448
7650
8599
7788
3456
3271
4940
9223
6230
10519
9587
9047
3926
10090
8080
78
7088
2247
9747
11751
9783
7451
8980
2279
8123
3897
10644
7177
9312
11172
3631
10183
6272
8616
392
3191
16
4200
2672
6164
3493
7394
4839
593
11004
8737
5827
7961
5887
2355
6036
4798
10211
4592
8656
163
10942
11147
11552
7380
11763
6356
9092
5542
6007
7993
7638
6793
7758
4837
2293
6548
7898
4481
3716
6140
1549
2044
767
5693
7870
7857
3302
4517
10717
9551
3292
9011
1403
1382
6928
5671
1638
11574
6907
8591
6406
9074
1179
5448
5078
8648
5175
689
10459
6525
11602
6488
7154
9940
6610
10115
4349
1884
10204
2494
5947
3036
5777
845
8734
7967
10013
7340
10637
9778
7137
2964
2529
5772
1048
7045
1960
2530
8429
4917
9325
5901
8286
4259
11293
5656
6097
5907
7373
2978
10468
10988
6721
7842
8264
10361
3138
8325
11730
1826
5548
8785
560
10405
8435
5435
4437
8597
1442
8453
4406
11266
1689
11660
10622
5962
2496
9675
340
2408
9861
5782
4576
3725
2785
1012
5280
4895
7121
6549
4037
148
285
11406
8555
11591
6770
4443
7446
236
11331
7123
9859
3083
632
6813
2493
2665
10023
10091
9941
9999
4211
3874
9424
2817
11764
11596
10607
7426
10157
10816
10870
1735
7397
4255
9775
2475
11796
3713
10604
1804
707
10859
5189
5472
72
7843
5101
6764
9382
1125
1241
9736
2349
6602
6780
4358
1343
11801
10256
11316
8632
6652
1100
9160
8841
7327
7622
987
2852
8853
630
1249
3179
482
9654
3040
5010
10316
7000
3273
7227
3683
6674
6807
11651
1316
3225
1072
4815
9980
5752
10800
4616
3097
11144
6869
1300
7285
6284
5495
5291
9600
1798
9667
5203
8227
5047
6441
8636
8105
2359
11084
3654
7052
1286
10776
4445
2137
6787
11522
10046
10588
6894
10117
8564
7151
963
6012
4882
140
10664
8906
6936
6542
5243
4431
9869
406
8212
9196
10193
10187
9135
8234
4399
5252
11
4760
1177
2863
6471
6228
9218
2989
9153
7117
7010
10103
8927
1440
11516
2875
9108
10741
10386
7232
3726
2772
9816
454
9013
8189
1367
3712
11640
1388
9042
1000
7761
3553
4114
9829
1667
3173
9539
11104
488
3230
3828
10218
5208
7848
5704
11391
8133
703
5105
10506
3291
8125
9519
11381
10652
4909
4440
986
10910
11079
7705
6257
6089
5238
1198
9710
10708
7519
6812
9206
8320
9556
7175
4470
891
1969
5757
6527
6294
7595
9110
3249
6570
6638
7351
10831
9400
7473
10877
10246
1239
2289
2740
8467
4585
9227
1229
9200
6980
5178
4293
1058
6262
281
9235
9508
968
3953
1939
9987
1274
619
10038
1742
1390
2203
9771
9847
3568
6116
11780
6052
3178
3192
9499
6099
7029
575
6656
7115
10401
6276
9472
10611
5897
5724
269
629
3081
3466
6430
11002
7062
11493
5543
4356
10764
2113
8219
3216
3814
8321
10140
2278
4599
13
10899
1525
2365
4648
374
10057
6477
525
9131
6895
3591
7904
2958
529
3714
4732
9461
1394
9633
5631
9465
6563
4703
1712
11527
955
6675
3453
9579
8595
2071
11508
158
7005
9094
352
6078
6236
8946
11788
2920
8503
4644
661
7057
3665
7979
306
4790
2356
1927
11028
3427
8941
3638
1266
1560
7179
4109
7867
4904
7294
514
894
8601
21
899
207
458
2430
8442
9299
3389
9905
3911
5383
8907
552
9631
3144
6917
2056
1925
634
6082
8508
10952
11437
8619
10145
105
3041
1709
89
7014
3174
917
7833
6732
1949
6368
1
8032
6047
9127
10883
2720
8783
11592
3117
11185
9768
3762
213
778
3496
10417
2043
8920
5420
6154
9759
8357
10289
8465
4167
3788
8586
583
11708
11798
116
6644
10665
11754
11540
10579
8712
1763
1875
3224
526
7725
2946
4473
5655
8884
6059
959
6342
3633
1050
8782
8711
3380
3676
5776
10678
6573
5179
1607
3610
11530
6635
11814
10001
791
8984
3056
10047
1980
3598
933
7424
5626
1682
4179
6446
4116
988
2896
3778
5658
3093
3155
1823
11372
1098
2844
9078
3342
38
6540
11048
8707
3356
9645
7813
9098
8220
10901
2428
5043
5346
8954
4811
8476
686
4799
7437
2353
6353
4569
8213
2752
9077
8073
9109
1040
7491
1265
10946
7059
277
5084
9437
2382
571
1435
9439
5352
5445
1007
4543
10416
2064
1136
9882
5343
10177
294
9739
8780
2403
3998
11018
3741
10896
2719
10871
5150
2808
9017
556
10684
4795
2469
3738
4286
9908
2604
362
6924
1704
2139
3239
2383
7314
4311
9477
1312
11134
3930
6183
1591
11092
2162
2396
317
9516
5233
5068
4036
8987
3020
9903
8228
9105
5295
3972
5370
4133
974
7291
9175
954
9610
9752
9547
10995
5016
11498
9179
7490
1640
1290
1380
1933
4675
10222
892
7287
4876
7906
8194
11083
9041
2466
7657
10106
9788
1913
2736
726
7214
8245
1796
3845
6402
936
2265
824
7274
1389
3564
9076
5429
7827
5690
7878
1868
8202
7486
9655
806
4805
10426
10300
11202
11762
9155
7511
8056
4494
2632
10513
8896
8623
7832
4388
145
6467
2033
10777
1165
2050
3760
4435
3430
8190
10347
7069
4361
9454
1771
3511
271
8436
2032
9005
11420
3810
9996
4346
545
3241
8930
8502
9323
11715
7564
920
10767
6640
7694
8230
7126
4278
2983
130
7980
2667
7138
3223
9374
7693
5392
614
11699
1466
4497
3042
9126
2419
5085
3294
6737
1500
9018
1521
10766
4232
7686
8820
4430
390
11650
7124
5913
8592
4806
10573
8238
8044
11557
3993
11285
6609
5319
11626
7119
2421
5604
1750
10646
11483
338
8407
1341
11277
7982
3640
329
10430
3004
6960
4090
9828
2322
6667
7009
4197
3549
9650
8363
4203
11001
10553
6185
1639
9130
60
1240
5760
5136
2343
2120
1524
7617
153
481
6122
7674
7101
1762
8942
7715
9977
10722
7479
6212
4853
2711
6766
4150
1333
11117
8378
9328
11094
11470
10250
10770
3850
8340
4124
10584
4788
2866
1386
5941
3067
10696
3629
11175
10567
3028
2969
9900
8646
6136
8801
4263
645
11408
2074
341
8041
1622
7141
5796
7184
11021
8232
5475
10281
10367
10932
74
11690
10268
8633
10903
2051
2541
1301
5877
7368
1304
8428
10736
2599
2573
3186
2768
4831
4223
11404
2106
2679
1387
10547
11415
7083
1279
804
1555
11209
4566
11509
4841
3594
6035
6852
10112
8705
4177
1308
9106
3452
3695
4242
2198
8966
4425
6150
943
822
5005
6612
8356
5619
4547
2538
9503
5207
11240
10639
3054
3675
7776
7218
6722
3300
3310
7221
8519
5954
832
3462
11022
7643
54
3451
6305
10093
1481
4873
8038
3335
6016
4926
9138
5797
10353
11615
5083
6645
5490
768
2065
11224
7311
8477
11738
4524
10524
2717
2079
8914
951
8058
2482
10454
9181
1759
9984
4422
6704
9916
5182
8533
3701
4243
688
3432
4944
966
11206
10395
2713
4757
11301
6320
5975
3572
5299
1990
1205
4971
11492
6783
3600
6490
8609
11789
8070
8577
7973
10998
1625
536
8766
7970
4212
6456
3507
8393
9524
7112
2708
5031
6514
4662
4021
1854
11136
2872
3030
9397
1645
3417
3476
11286
1792
3797
3368
7196
11393
5109
6024
8795
10978
126
5959
3876
4451
7147
3531
827
9831
7790
984
7783
10380
11321
2443
8554
10541
345
814
6166
5779
2116
10026
793
11748
6898
2674
94
4225
3756
2891
2371
11432
3228
7863
6359
10865
7326
6028
1865
4612
10049
2645
2243
5373
2336
950
1120
2204
419
922
9446
8669
10227
5408
5788
5742
7667
5567
8135
1202
5765
8389
1970
4018
10343
3687
1997
4033
1248
2192
2712
9184
2190
4670
5142
5984
6565
7804
6943
9510
10055
10535
10641
2136
1065
600
4227
7577
77
7546
2898
4820
9506
10990
6413
9444
9064
8007
5468
5951
3391
5415
2560
11686
8162
2635
5256
3530
8567
1908
10941
235
1604
7984
9310
3490
11637
1994
2824
10968
10568
1342
8512
1619
5287
2060
11758
2219
9865
6038
260
11067
10231
9093
3744
2026
6988
4234
1917
1828
9765
6233
11029
6283
4208
224
8915
10002
9333
6469
11123
846
4289
5560
2551
117
8837
5966
8195
8659
7489
5
5342
9111
10787
4324
1063
2590
8434
9352
3735
10589
3517
6986
10755
6767
5622
1605
1733
10516
11039
9504
3812
11374
10554
10167
1761
5401
2739
11382
2472
6738
6891
7943
9685
4206
6371
10350
9361
10348
232
8258
7561
9795
6168
3596
6288
4632
125
7641
6229
1296
1976
11201
11149
10267
5750
8152
3086
10958
6882
10994
7673
3345
8172
11131
5870
6506
2797
918
1646
5122
5126
4621
6809
364
2125
8150
8717
55
638
302
5811
1276
10247
4432
3644
4143
2878
6493
10478
10453
5240
11116
10488
6937
7240
9945
10160
2593
2393
523
6376
6981
6677
3900
11385
5585
11062
7956
7570
6777
10161
671
4188
666
3266
1887
8472
9911
9091
7687
6031
6090
6238
7350
7830
760
6254
1906
3818
6269
4300
5569
7941
10785
4164
5971
3579
2832
5449
3472
6327
137
7043
4892
2180
10320
7730
3177
4854
4637
5115
10989
7648
4261
1331
10209
10674
7002
9550
6941
8017
6241
9521
11799
6881
10342
4530
10314
4673
6996
1252
3374
2814
4719
6544
10040
4858
7901
8580
8427
1077
10176
4363
770
10357
8865
249
9766
7239
3419
10273
10015
4976
4544
5565
7939
716
11407
2048
5997
6600
7245
4178
4809
10916
11204
7140
7190
1460
5989
9860
10948
2000
8175
404
384
11164
11210
10344
1633
11289
4784
11176
6970
3925
4158
7449
8415
2193
10016
1015
5124
7418
7409
8989
2871
9
10136
1838
4804
255
7026
5713
3324
7714
1581
924
2779
10700
7891
6132
5320
7312
7102
6042
3775
4835
4964
10971
539
7483
2745
3719
6819
9337
4468
667
7575
8549
5063
11023
10975
1353
7114
11547
8662
2703
3330
8053
9588
3584
11156
5645
3376
1256
6190
9442
5348
11003
4175
4910
1852
6316
11643
2105
133
5029
928
823
7576
1531
1214
504
10188
6530
3072
10150
9576
9086
8647
6619
9273
3709
11327
4849
4748
4268
11672
8905
4186
10406
5301
2923
6588
1810
3486
7419
3141
10019
9347
1324
4312
7494
8702
9872
8691
11227
10048
9580
10578
5541
6172
1540
9409
2681
11676
6313
1191
5293
1542
7056
2539
953
7241
6731
4846
6801
8010
4330
8924
5334
7330
9348
4729
6541
11174
5305
5161
7860
2156
1062
10808
1167
3636
7651
5588
11130
7192
4491
7266
4980
8335
11755
4946
2782
717
10011
2502
4360
4171
8082
11533
395
7186
11604
4492
1365
11253
8787
5917
4968
2914
10518
5644
3766
3440
7357
6806
9879
2143
5104
5073
1571
4079
1122
2786
2967
2504
5988
8867
11000
7164
728
7587
7543
412
9708
5745
7668
825
3267
3974
8808
8306
417
11261
9817
6748
8967
11088
11396
2082
8945
10738
3373
5726
4107
10636
4380
7723
1066
3913
5536
8002
5387
5732
2738
5052
4000
9760
2427
6833
10123
1687
851
6303
9087
5878
8527
2839
11279
4611
9540
9207
11008
9823
2489
6905
7390
2849
6665
5881
10262
4452
9949
7421
9827
6484
2479
6617
10457
11151
11251
2141
11310
5188
11467
2744
7253
3506
1679
4249
3147
8130
10486
7004
580
9662
4070
3343
7404
3672
559
5237
7805
11041
512
1081
1664
9204
1931
11422
1150
2838
5949
8308
8932
11564
5177
830
8311
4752
11531
11487
635
4465
6799
7987
7079
6966
4142
7027
9183
876
4869
5315
5222
4
3051
5691
3124
10852
2491
3854
4777
9907
7509
6457
6293
1148
574
3769
4146
853
10174
10966
5919
9358
6614
6002
9163
10893
4495
8173
6655
2368
4780
7992
2950
5625
6971
8716
10647
1841
5986
537
2806
5801
5596
7206
7343
7560
8096
11367
784
1409
10729
154
7806
3009
1686
11093
4014
7455
3863
2733
1895
5442
569
6709
5854
1816
10257
8319
3394
3327
11794
6102
2975
980
10492
190
9331
5088
699
11532
606
301
3420
11582
1060
10757
3444
1069
10716
2205
9435
7339
8208
7679
11312
4642
7683
9007
7996
11259
5600
9151
7022
4893
225
3354
5895
10677
8754
3436
1693
6893
1045
3446
8050
9146
11793
10927
11296
4735
4496
1218
6015
9719
3987
4911
9492
4493
6944
5699
8352
956
11426
2869
4433
4973
2961
2200
98
11806
2557
11375
8445
4199
9637
5539
1648
9888
11383
6197
6295
4499
1154
2255
9874
3170
7400
10248
7158
3108
4548
5423
2049
9208
8815
11575
262
4061
5534
6616
8120
8155
1802
4736
11804
2385
6694
5759
1959
2976
8680
1843
1734
2911
11411
8338
1986
9561
6546
7098
2811
659
9986
2511
4282
9339
11464
8800
6287
1930
7125
197
7777
2931
8004
2327
4389
8958
4218
11447
202
3510
4931
5535
9925
5791
10969
1707
5172
5249
6528
11633
5855
8164
854
4737
10352
698
11344
11191
3696
1636
7280
7554
3581
1291
6585
1853
5232
3763
3304
1495
7994
1998
663
3748
4413
5530
5575
8901
7526
9474
5864
10867
6776
1306
7392
10429
11494
5592
10230
9721
1663
5450
11733
11757
3627
2693
11252
9789
10921
10817
5915
3157
11506
9914
6668
1059
4636
3242
1678
6892
6374
7574
1757
6019
5116
8755
7408
2790
863
7858
1484
7035
7721
5977
5134
206
4488
6938
9062
6910
502
7385
1028
3840
10882
8110
5056
9762
8154
10965
2731
8996
2454
7215
3104
8392
6278
3099
6184
10470
3561
5892
391
6736
5618
5258
9687
2695
2027
5463
2568
8006
64
2062
5276
7208
8684
8571
6331
4859
4887
9268
878
8529
7916
6863
7892
6439
7869
1016
9467
7629
11534
995
10173
4297
161
5675
6873
9692
7989
3843
10805
11653
1021
3073
7555
3943
1585
10147
3152
8226
775
10748
9670
7099
5486
6235
9555
7041
2612
7513
11016
10233
8433
10253
10555
8792
10627
5393
11080
8838
3890
3556
11394
1528
1267
7734
1899
4658
3005
2734
189
9998
9167
2747
2047
7849
2558
9274
8666
11096
6396
3385
4555
1184
6420
5051
5311
2433
6949
10583
769
1685
8322
11111
11363
11636
5578
4426
466
6265
5734
11284
5191
5390
860
7270
