10056
14739
8295
14340
2514
10464
5973
10501
4953
14644
9941
5140
5340
8580
3940
6434
3301
3931
14110
214
5297
10572
13312
6617
4065
12990
4717
13306
12745
675
13895
1845
4574
11409
7865
6182
12316
3270
7305
4251
4530
5739
6279
13714
3918
13618
10092
1172
5808
11840
10280
1954
4705
9571
11082
12644
2768
1150
11373
2087
6965
11071
5981
11755
3035
7430
3497
2840
8961
10577
9758
521
1524
12517
643
3805
9360
4352
14297
9637
7100
10087
9555
5810
33
13040
12624
13779
12584
11476
654
5076
6382
489
3579
10166
9556
8159
9103
10828
10433
13035
2398
11984
9438
6036
7272
6328
9400
4852
14154
3136
12276
11345
7851
6487
12686
763
577
1087
9867
12965
6709
11583
11254
1419
12639
8415
9545
11649
12314
5667
5825
6550
10277
8000
14034
4698
712
11342
4425
10015
6712
12203
10803
6567
3171
13331
13585
11364
2739
14393
13413
1795
6052
14680
6454
3186
6143
874
8470
14229
1570
1188
2804
9353
3008
8481
13153
5002
11706
4014
1916
4654
3086
9581
3091
7057
3724
9589
6043
5327
8319
5093
11103
10397
142
452
7248
2441
5407
10162
13574
12589
9497
9628
12982
5742
6788
4395
3304
4397
13029
10447
12497
9346
9917
10685
620
4506
920
6424
12298
8597
6400
10155
13556
10237
8227
4334
12097
11563
12520
11021
8323
4834
9205
9336
11919
10151
12051
13668
3909
13682
13390
5475
10419
14610
7052
3321
3490
14186
7271
7804
11573
2556
1268
11730
5417
927
13887
12431
9877
9102
7446
12587
6054
852
10775
3990
5547
2870
45
6917
5844
5349
5811
2266
7699
13378
2755
13875
11101
519
1374
8546
3452
7609
1192
5688
12777
10524
488
13223
5957
10891
8328
2407
8433
8494
278
3295
4140
272
6177
4798
12746
3017
11975
13928
467
14010
4685
11033
10872
3711
7630
7863
8239
7806
10578
4702
7901
7013
10679
14764
5074
10375
10221
11289
7303
6704
2481
14003
8014
325
9700
1582
8522
3498
13810
8610
8939
10799
13927
9424
11897
14481
431
4732
12708
7645
12210
12787
14129
1604
10700
3759
11298
5758
8699
5281
12389
7740
13345
3449
31
9153
12492
11089
6512
3655
10767
154
12137
5728
11244
7065
12499
6175
1945
2925
4029
7008
4458
4699
10269
10335
13859
9349
5483
12250
1094
7347
5959
4079
1262
7892
1180
4635
399
8878
13176
10315
2265
1776
10768
5831
1078
12867
3610
12834
13572
1096
12807
13744
14362
7161
5644
4848
5554
9431
1018
7711
2008
4446
4606
5229
1639
5617
5481
9261
13156
12554
12533
9681
3740
340
14070
2508
3388
7796
14250
10156
13183
9715
6897
1392
1819
1747
14347
3384
1124
6115
5418
7997
13394
4403
4623
3942
9762
2369
12815
12281
7993
11584
9354
8151
221
5978
9634
7912
2272
10759
9616
8759
14372
13198
14514
9331
3849
4557
2622
1251
5236
14263
13175
7814
11056
9053
8888
1670
8238
3699
13502
7357
3874
8422
8820
9946
167
14762
9191
9074
4074
5470
2697
14228
12123
8880
13401
8025
5136
9152
2296
7588
7919
10861
3890
3430
4908
14064
11047
888
6318
5713
12344
1136
9568
8410
2828
8503
11921
10634
11714
4656
3577
13083
12471
575
7760
1922
10343
3685
14498
12335
13424
6466
4864
424
2006
2786
13945
12308
12062
466
14492
5055
5944
5326
14252
4853
8805
14685
11281
1744
14601
5186
4241
12914
578
10145
13333
8226
10969
2758
14748
5225
5827
7423
10587
2577
719
845
10482
1145
10554
2390
5867
5761
10284
14182
787
12380
14390
4450
5952
1335
12548
5221
9264
335
13341
11436
3233
13073
3974
12184
230
2252
11811
5367
13826
12249
8111
9699
12325
8069
13692
13726
6777
2808
7514
11631
159
11151
3595
312
14420
8395
7987
4866
11866
11596
663
11014
1555
11990
11369
12876
9168
13544
13935
9566
12655
2471
776
10645
13269
12001
5953
6195
11891
14471
14028
2522
11077
3926
1426
3156
3026
4125
320
7176
2541
605
4117
321
5718
10406
6392
6389
7983
2121
8886
1272
11127
3354
13813
7415
6834
9593
4269
12411
9044
174
1113
6853
5361
1876
6302
13636
11827
6332
4922
10302
1477
4668
1469
13218
5472
4968
12591
10255
3098
2874
4785
5979
3383
10893
8827
7834
10153
393
13946
13305
7359
10407
13115
3882
11736
6861
5782
7340
7287
6203
6014
9541
628
11641
4280
6763
1129
4608
7891
201
1646
3065
10453
12376
4086
4177
8921
5636
9511
2402
10159
5315
44
843
8374
2257
1596
1525
13391
7930
3142
12872
5893
2097
14281
13677
503
12247
4095
499
8723
14336
9896
12129
8478
3866
10250
6150
14640
459
10327
9406
13568
3568
6642
5317
1934
1963
196
9384
1001
13940
1458
7124
406
9799
13646
2530
11702
1021
4276
10226
13192
2143
1671
6016
4696
7225
1091
9671
8210
7235
9254
6900
6157
8811
974
2032
12522
8931
3919
8908
6877
280
3028
12057
6148
13377
11037
8504
3074
8527
13210
5271
13656
14037
5084
14359
4978
3315
48
4615
10150
10621
12422
9387
6809
10806
313
14630
7913
7123
5710
13141
6836
14467
12709
12
88
1463
9415
2675
13069
1232
308
7168
952
2907
5950
4885
9072
10079
3677
10538
6149
14655
11325
10977
7629
3862
1790
4413
12439
5254
5566
11252
134
4073
4132
11906
6470
8977
828
7277
12286
8792
2850
1895
6791
12576
8342
2051
1554
1827
7353
1461
12028
3792
5255
6738
9407
11626
13180
5851
10753
6163
8724
13010
1587
6920
1035
13799
13257
3169
8020
2455
5226
14022
6274
7550
5784
206
10051
6050
13623
4650
1598
6963
12763
4456
13275
397
1359
13698
11549
11862
1987
12564
1380
4553
6173
10942
2578
1765
13880
14518
2450
4220
950
5750
3504
11890
12604
8745
10247
2993
8631
8613
11633
10200
7252
10986
13243
2574
10240
486
7137
4738
6137
4185
791
1659
11433
11846
9659
14541
3003
9013
10630
11998
94
11155
14389
4793
14030
6737
2663
4722
1353
13231
641
775
11692
9759
6369
8684
13147
7091
12329
12817
5932
7291
5651
8658
11177
8090
2342
3042
8550
5756
1393
10661
1542
14663
14477
7292
13537
10899
1990
5529
8174
9635
449
2178
18
1218
13580
5239
3263
8590
9724
4036
8731
2285
10727
10999
5584
14499
14298
4156
10898
10672
3294
8034
10369
14111
14322
10067
13056
1871
2524
1641
3040
8498
2231
7560
7853
4531
11218
3486
14370
2356
3754
5089
1652
3198
9818
6095
6602
2411
2718
13338
8534
1378
3651
8370
10489
13150
3556
14239
146
2045
1762
1481
7041
4051
10091
9713
12805
8735
6913
6055
8428
3548
7180
1544
9881
11833
2422
11279
5189
5698
3611
4457
7226
11855
10223
2389
1284
13987
1749
639
5176
1786
13463
4805
12848
10597
13443
4410
5575
3658
4002
13745
3648
11708
1980
3683
1857
2520
4208
8351
2195
5788
1275
12435
1400
8088
9735
8644
14386
7732
1270
6564
169
8530
725
1584
7820
3469
14632
14192
7099
12632
9608
13232
556
371
11403
11343
6816
14317
7193
4511
11597
9523
4194
4153
5010
5708
7845
9641
13664
4957
14167
9279
768
12398
11920
12575
12162
1862
4222
7320
13718
11242
2078
2892
11955
5400
4361
6589
13645
12370
14447
6685
2878
1364
1846
12948
11208
3985
6951
1428
5645
7170
4341
4016
11994
10874
11294
7315
6611
14073
5068
2635
13969
10845
4940
541
12476
14488
992
14078
1568
598
6388
11650
4447
665
379
8828
4760
7476
5246
12519
12962
7798
14212
8067
5732
6775
187
651
2470
12716
4637
5486
8622
1818
13357
3670
4824
9092
10873
14085
181
4301
8705
13566
9464
5363
2611
12207
13384
13996
12085
8668
9704
13440
1234
4028
8120
6905
2364
12735
3379
4409
2792
3287
3837
1928
8199
7059
2332
4971
2120
9965
2848
9942
6985
9900
4379
3275
13081
12458
10073
13509
6116
12310
5286
9365
9751
1472
8847
509
4242
13379
13570
7553
476
4001
5888
5013
1002
8461
14189
6305
5478
2827
12769
5884
9774
9107
3224
13683
5849
4640
457
9640
304
11317
1752
13260
9186
12151
3058
9776
7618
4012
823
13350
7317
11822
8562
634
8596
6980
733
265
12218
2989
2711
491
13565
12849
7033
9028
14122
5355
12159
133
11521
3085
4347
6200
6770
14197
12566
13110
14055
1082
11223
13621
10923
13279
4134
454
13055
157
1305
3867
1282
14771
7918
8606
1521
16
3193
8881
14008
6889
608
10623
14409
6118
7165
13047
10887
14382
2612
10445
3582
11220
9585
11934
6794
380
8172
1060
14434
5444
9345
12981
12424
12958
14734
1496
1358
366
10018
10267
7399
6354
10129
37
6235
9450
11178
930
1257
11467
1847
10386
2646
4247
9565
9
14338
245
526
3870
13898
4518
14185
5253
8532
4441
8414
11645
12999
12391
9307
11561
3038
6445
12771
8778
14724
1205
7375
8191
2009
10479
9967
11495
3773
1994
11031
12275
5059
8706
223
11913
6136
9038
2086
11907
10671
9386
7096
1971
4179
6290
10591
2033
1986
3390
7679
6504
14485
9727
4764
760
2416
9847
9086
9519
7389
2674
4820
8343
2094
1668
8446
5723
1309
6082
6989
12096
14264
1912
12841
1974
12886
3904
7054
9197
14305
10448
5516
6758
5296
716
6349
7897
1688
13564
14634
7778
8431
11457
1293
7066
6315
13626
7338
6071
13093
6156
11659
8955
11175
11828
640
4108
4514
10659
8636
9618
7866
1500
6326
13591
5104
9950
2583
11988
176
1438
11448
13786
5423
8418
7895
4752
14350
4689
9118
10907
6166
7105
10835
3850
6033
10601
9741
8693
9313
772
8904
10125
1984
2277
7461
13026
258
3103
5198
6232
14062
4948
8269
7280
14559
3293
3933
14193
1564
2289
7197
11413
12243
1202
4780
7552
6117
7709
5021
11059
11763
11965
7585
7900
7685
4324
5200
5620
8843
4843
8430
12621
11234
10866
7771
8465
8076
13113
6882
554
7838
14753
8392
10931
10747
3167
6557
6649
7373
8963
5396
8285
5130
6537
976
7251
13643
2230
4439
3279
4781
14179
12251
9452
8194
12762
11147
14384
9471
13907
12468
11168
13754
12528
9287
11918
4436
7751
7367
610
8569
8196
8845
2445
10640
14007
8768
14207
10869
7583
3525
6201
3961
1920
11368
5869
2164
7646
10919
11662
14302
8360
13521
3958
8473
495
11863
8183
6133
10421
5752
9668
13374
13814
7750
10522
12694
1454
5072
3033
2951
12921
9684
3045
6255
2124
2955
12970
6918
10230
12714
8557
1070
7048
7577
6213
12386
119
11874
9267
13934
4120
1388
9783
9529
10772
5345
12831
8572
8027
11190
9740
11535
13711
343
5818
2464
11733
12236
3813
1950
8837
188
11555
10751
3328
9017
5222
7212
11447
11064
1495
9838
7460
13527
7482
3596
13106
12636
6035
3969
579
2062
2648
11951
7881
12132
5664
13363
619
8782
5511
6867
1985
3351
7270
7668
7741
11183
3781
5466
5838
10198
13617
9823
7457
5991
8761
6939
8524
12649
8186
12448
2107
13160
3689
2459
6300
8381
5047
9080
5499
4784
8011
14550
2776
14311
7633
11991
6436
10488
4232
1655
11682
2590
12131
1348
14588
2926
832
4294
7549
11560
4647
536
12052
126
9042
7247
1239
2858
7450
3628
12306
4037
12090
7883
14139
5590
8463
7234
1271
6221
6097
3061
14731
11739
9790
5135
5558
13577
12117
9971
10533
14484
2558
664
722
7961
5574
13451
3309
12197
6491
12676
11277
12353
8053
2565
12983
9223
12606
4147
10935
13773
13411
4035
8824
5171
10729
7369
8457
2203
808
12081
6259
12101
10043
2630
1784
2884
9162
2089
2461
8896
12884
7581
11580
13529
3533
2405
164
13868
121
11401
5601
4102
1103
7758
12245
11497
6096
2814
6936
11374
4160
3207
12320
6895
9372
14327
8497
2822
2984
10069
7500
1742
296
11455
4815
6541
13332
5442
8623
6928
2478
4114
10535
2624
9312
9180
10497
6241
5771
10993
9587
9029
3691
925
4926
1298
7447
14231
7720
7191
2130
7861
12835
10264
332
8594
3369
5933
10901
4911
8718
11668
2216
103
7207
10667
12084
2496
9216
12923
7898
1797
11559
13089
6975
14616
11980
6029
7742
220
2004
2505
6155
13030
4295
2370
3899
13286
13874
5858
12467
6676
11926
7406
13497
4498
12623
5568
1121
3368
13086
9022
253
5513
1581
8762
10976
6969
138
7413
12408
2449
4307
6858
5773
9538
713
3484
2533
3790
13031
9499
1237
4905
3223
10549
1425
11361
8560
13161
11276
10426
5125
2600
13219
5854
1069
10074
13258
5904
12518
8728
14490
1629
2194
13213
2787
7411
4503
6420
2400
13757
4183
5154
12656
4983
9199
1156
14168
5975
4168
3860
7616
1873
13806
6513
10408
9540
13209
2693
2092
14160
14453
3048
6759
4292
11378
11777
6023
14346
10850
6031
1283
11236
565
6309
1754
6944
9656
14072
9725
3482
8078
9775
356
9717
13889
8085
402
10252
7665
8553
3071
6174
14147
2882
11871
2145
6732
4902
6872
12963
6034
7871
6059
5380
6831
3088
14124
6433
10561
4613
8667
3693
6270
11357
13661
530
13370
11124
4578
13797
8389
879
8101
11174
1820
9712
2246
9388
13013
2136
8887
4261
11613
10709
13186
4718
11338
14662
7825
4626
13971
8521
9176
1727
2293
6289
12687
6887
2202
443
6934
7377
5185
11128
6544
4591
2093
11983
11516
5277
7934
5116
7705
8529
9011
9994
9379
3491
597
671
4149
9146
11493
1313
4741
11473
11426
2903
8625
11515
13821
7169
4056
2184
6796
13253
8305
534
6078
10208
6295
3530
6220
10841
14103
5024
257
398
11322
9655
14750
5004
10758
9099
12860
10627
8578
5824
13313
9729
11278
12666
1047
6864
5102
10734
14161
11698
13597
2769
3168
14379
7540
4901
7178
13998
13932
10739
3984
5781
12194
13088
12261
1684
10368
4719
7210
9863
12115
13540
13109
2916
11839
3011
752
3720
12894
1095
4076
3794
13288
10246
11123
4938
8129
13263
507
4021
4444
14279
7238
692
3249
4493
6993
3378
14566
12794
3157
5863
14238
4912
1515
10682
2928
2681
7296
8253
6364
14473
8502
6893
5329
4569
4672
3817
812
4903
4589
5974
13524
11604
6306
5194
11488
14697
10937
334
4883
14428
10470
9962
7653
8476
7189
14754
10428
6536
2721
12259
396
9333
10381
7955
11186
11575
4910
5630
7471
10321
8648
2632
4145
2705
9730
4827
1120
2869
10274
6701
3266
11246
3843
12208
13783
2023
7923
11245
13070
12498
7917
14726
2694
12099
11527
6608
11703
7812
4891
4930
11257
2826
6823
12956
1541
12491
4315
6008
274
10134
7068
7928
125
14011
13625
9036
4534
9993
5598
11660
4199
13650
7129
9148
11775
14786
12830
9892
12039
887
8549
624
3158
10190
13667
10821
12352
5352
5578
2179
1347
2166
13240
1510
6656
14200
7776
6592
439
5613
3202
12674
7481
7177
5487
11379
275
6172
865
10794
7761
9212
10566
12017
13049
14092
5477
7156
2066
11883
7502
4385
837
9544
10204
13901
11562
6409
10657
381
12155
7809
5408
7082
13598
6124
1043
7386
14714
2187
9257
5373
6995
12827
6825
4607
7696
12547
5596
2460
11258
8117
11470
9352
3421
3019
955
9920
4976
1855
10604
11365
5285
9457
2155
11283
8338
13642
13671
7312
1830
6422
12043
11789
6469
8506
983
7622
1869
10298
13791
7716
3871
2103
10041
14416
2540
3861
10008
11011
8180
3667
150
11302
4877
10376
6275
9320
8333
12878
10333
13343
9837
12092
6935
256
1761
6582
7486
7154
13382
9003
6894
5042
14576
14
5202
8256
3892
1773
5045
4603
9377
11269
11411
2235
9827
7595
6073
13426
532
7387
5122
13841
9275
660
7036
4617
3745
7364
13904
6415
8643
834
7322
11616
2772
7613
13575
8817
10606
6339
13638
8725
12037
8388
5129
6666
6902
378
7076
11337
9364
3608
11237
13815
7332
10047
12453
5386
10807
538
14620
7625
12836
3760
3135
11179
6145
11581
5700
2084
14688
5563
2800
13684
9217
4319
14711
3645
1757
4945
5679
8700
10394
11744
6659
11200
12994
9579
13247
6607
1008
9644
11001
2488
12599
7675
10105
7081
12630
5633
5292
1303
3644
12740
8153
1653
4266
3109
10516
14462
13222
2924
5990
4513
12146
5809
237
4225
14790
5331
3743
13239
9629
12960
12536
11807
14475
6946
7362
13171
12202
13690
3988
7726
5662
12481
14326
477
12726
9887
11435
3029
3605
7397
9198
14482
10430
13027
11195
9463
9396
9510
1143
8147
1339
574
11384
6751
6815
2738
8860
5492
6492
5318
83
5902
3363
11310
9065
982
10581
14255
14408
4393
3709
1083
7614
3276
2462
9479
1560
14773
12201
10731
2019
11569
8326
4126
724
8652
1260
6503
8176
5353
14759
7868
10194
11655
12671
12565
6803
9985
13616
11273
1455
9981
2917
2115
6379
9204
14053
10619
8110
8113
1173
7433
7080
4947
2215
7263
11857
7862
13561
4658
12355
14195
2961
1280
8403
3027
4495
6560
6363
11295
7543
3889
1996
8507
4510
6683
3834
2595
644
10271
5980
600
5147
5670
11903
4435
4213
12122
10961
6281
3771
10121
1870
8146
1530
1241
1579
637
11189
13738
3089
8765
7028
6890
4646
10307
39
6945
7570
13142
5287
4155
10122
12338
10030
4965
2154
13966
13314
5938
5873
5999
14646
2182
9026
10846
10019
581
1090
1468
192
9310
9862
12349
7978
7290
14335
5836
2589
7061
9567
345
9716
4473
6703
13208
6462
9477
1085
9961
4459
13348
12688
5144
12206
3953
3154
4100
14509
7164
13707
9270
14570
5491
13608
10325
10031
8289
1625
294
4536
9972
10763
10666
8114
14470
6654
13595
11630
3646
3532
9688
11509
13197
4356
9598
3894
14060
1415
10033
3757
2518
13340
8263
11149
12258
1067
9766
9255
9674
9290
5942
4959
3841
9487
1276
12312
2254
8472
7684
13725
12450
13405
8829
13918
12605
11250
6282
190
6606
11590
13420
9056
1403
3255
8678
9789
7932
13805
14403
42
8951
14312
3481
8962
2339
3764
487
9560
2605
7111
5675
14341
13296
5815
13852
11801
5079
5314
4022
4422
3515
9909
4066
8704
3355
2477
10469
4032
4080
12071
5860
338
6547
4034
14396
2985
2795
9030
2054
6658
8081
4077
11062
2952
7097
4674
7060
13959
5137
7042
5582
6907
11211
9500
8347
6303
11305
7644
3719
12405
2426
4122
6057
4851
11051
2170
12728
7240
13993
1574
1594
4594
2384
11307
9235
8552
12603
14149
10737
13373
8800
3360
9236
1467
14306
7985
4683
369
1377
13199
5625
11987
2275
6604
14719
2072
6878
1517
5987
8721
6120
2837
10798
10104
3765
6771
14523
5717
14324
1243
14074
4845
6472
10804
6978
6510
11981
2706
5017
7237
5817
13185
4555
5302
6210
989
4593
2963
4819
7246
9695
1557
5014
1666
2159
2469
10450
8445
6767
5397
1812
10793
4284
8984
8483
11046
6639
5678
12369
9617
11176
8237
10911
12456
1502
9144
2177
2885
4955
13358
1571
12691
10027
9121
6795
14063
9749
5639
12892
6660
14307
1221
14176
6925
11105
12610
14727
3022
124
1418
9929
14026
12765
11606
1195
12402
9266
8448
572
13573
225
13272
6106
14761
5439
10688
12516
6636
12098
2374
8233
1663
12050
5926
12191
1657
10858
2313
613
8565
4758
4354
11182
1167
12922
6365
10746
3392
5218
11367
788
12991
12152
4954
6109
8173
14494
12719
7120
11238
9202
10782
13691
3980
13023
12272
8230
13897
6813
9454
4146
10811
12684
6530
12764
4512
528
9937
9976
2249
2871
10936
12186
8840
8400
11407
958
13449
10664
9291
8508
10253
13915
2536
7499
9300
1586
898
11070
13835
11931
5265
8387
11865
10273
90
8716
3470
552
6950
12315
12677
11859
238
14040
13151
14071
322
1479
5541
352
2609
8983
8776
522
1106
10940
4829
11729
4046
2939
3495
4045
1352
9492
5183
3277
2534
10248
10605
14209
6811
3859
5034
1531
1943
10459
11501
3161
7142
9645
7826
13592
14586
9085
10792
10674
7302
11747
2949
9465
6923
4572
3524
5161
4491
144
2668
6346
14292
7674
10165
1843
1679
14021
5945
10117
5223
5643
2824
11525
9768
9622
1098
4648
8935
6619
12363
2475
10404
3244
4949
6483
4357
1238
12229
8695
13266
4063
4040
1893
13067
6414
1329
12121
11821
4811
11185
5793
1246
7768
7038
5595
13629
8369
5308
7986
2651
1253
7589
6027
10178
13099
1017
3053
5087
1569
2592
14276
13515
3130
12855
7538
8437
8966
13793
2957
11684
6691
11799
57
1088
10052
3729
8205
10299
7335
3824
14743
13145
10815
13890
4666
2340
13988
6039
8588
7429
6711
12118
12199
3365
11215
11205
10245
6476
4565
14148
4639
1299
2243
11239
2310
4788
6779
14772
413
3649
7056
10655
13448
14437
12507
10862
12871
5289
13242
1991
2268
13614
11287
7984
382
6904
12292
247
7152
13002
14778
8052
9661
2056
9444
6194
14501
4761
10139
3081
799
14256
11896
180
2208
7874
10590
6927
3047
12346
4265
7937
8863
1219
8744
2035
9806
7905
10320
7114
6260
6231
13202
6514
4003
2015
10305
8944
8208
11336
11550
11015
10011
7276
8879
12364
8795
580
9648
8491
13558
2173
8229
3025
2737
4813
5539
4638
12324
11985
9378
3506
14080
8404
10776
347
1273
7106
11540
13838
9213
3545
5833
5519
13761
3264
9441
5704
4909
13290
2559
3943
3422
9864
8264
12942
10546
6084
11694
377
12609
5968
8314
14230
13484
9504
13958
11872
3031
7938
500
4039
7872
8660
6620
3639
14097
8175
11627
12244
6159
2813
2994
3681
11164
12642
13385
2982
1003
5992
8937
2783
7128
3735
2316
32
5874
260
8399
9732
14673
14198
3769
5282
10754
6643
12142
6521
4614
3549
7969
14779
9233
1365
1072
10837
5624
11997
10529
10149
10503
655
14692
1139
9902
7466
10511
5783
5901
13419
14547
3093
4576
233
9398
50
9356
13457
7752
13609
226
2716
14358
2126
13146
3785
944
2283
10946
9355
7594
8769
5964
4442
10487
8
1833
8474
13344
7586
9975
12869
10985
7821
12978
12919
4008
10293
2319
7602
8185
5217
10571
8371
1644
11735
10474
836
9530
12372
8680
10933
242
3049
13764
1102
5184
7976
7014
8602
9302
7379
2500
11154
6041
5485
4810
555
11772
14785
1551
6977
9639
13500
11456
6360
5066
3141
5559
1751
5619
9209
8874
2083
11748
6888
8451
621
10007
2733
11395
4745
1612
4714
12003
4231
11619
12466
7797
1519
2888
3289
5029
1126
4299
12193
4320
12647
11204
14537
148
10981
6154
11904
4205
10842
9533
14220
5177
11044
3437
2835
2222
2555
4600
1101
1565
10855
4182
11328
10207
309
785
4304
9638
7030
14775
14044
13221
2901
11522
915
9614
13530
11241
13976
13369
6859
4421
12100
8854
4258
4766
7561
13792
13238
2680
1900
548
3924
13458
11358
11045
7342
6228
12761
5166
140
5263
10282
2480
11041
8683
14465
9401
5868
14108
4322
4763
14417
10954
1591
1109
13523
3018
5647
5294
3707
12345
1767
9992
11565
12291
8584
633
10563
11695
3190
3975
7596
9451
10848
5906
6748
8224
13188
9562
5972
11815
1387
7116
8362
2227
7147
364
4170
9773
4399
8833
12222
7101
8734
10436
9047
8201
1608
8077
9737
3883
7733
13163
11248
252
6127
14138
9181
10140
6267
6212
9836
5365
10908
10439
13330
893
7632
14526
13474
11768
12598
2529
13944
7562
7971
12824
4619
2932
6929
5118
7770
11724
6912
8038
10551
464
12288
2142
6502
9626
4023
5634
3220
1535
7490
4013
728
8477
5344
7360
4000
4985
10583
5886
12977
7254
12727
11482
14339
7980
5655
841
3004
5058
12633
779
5922
14288
14175
13981
2550
9620
5799
7017
1686
11445
6851
9690
12539
1344
6640
2160
9576
12394
2306
6955
3418
1648
11060
13308
749
12700
4433
12262
14542
5912
4312
13429
1170
7298
12138
4150
4308
2669
6215
8573
8257
4662
14113
13817
10387
9861
2112
4628
11434
4202
1360
14495
9269
7195
9166
12932
9779
547
8949
3398
3607
13460
7628
10342
9256
14091
6839
11463
5044
9340
10918
949
3222
8131
3951
6069
1404
14439
632
1915
10063
6333
3060
2584
882
2581
8276
460
8996
7529
10742
12010
2763
7744
3672
2463
1616
10633
13062
122
273
6237
14042
6766
4302
11629
2378
5496
6226
1433
1999
6854
4440
9322
10797
11207
3457
13216
12961
11450
910
14774
13294
1236
5954
12738
839
9250
13777
11412
8329
2703
7746
9833
9110
4402
12739
8029
14639
12898
2900
1831
1499
7832
2447
2798
6832
451
3377
14521
5415
5665
12885
12814
6042
14448
6498
2525
46
5588
6507
7088
11639
5101
7071
12549
11734
10168
2777
10451
7764
7970
8756
7879
4711
14737
8225
12721
8398
10199
11093
10405
1882
4710
3182
5437
4246
12897
12426
2348
13166
7130
12568
12157
7631
9149
6857
11961
8095
9627
9069
9016
4806
8563
12490
5931
582
8637
2139
5073
6190
14397
6286
1853
10695
11425
12112
12596
10353
4642
4838
7556
9130
9895
8316
1118
8234
3213
561
2335
5041
10785
2599
850
7958
10852
2451
8687
3389
9591
2657
12786
13085
2219
7557
12486
56
3716
4687
5106
14768
2059
9584
5853
9077
2385
10336
13949
1073
10879
12840
938
10193
13063
6630
5908
6571
11225
7650
8419
98
14257
9380
5764
12303
5131
12900
9403
9801
1029
11935
3895
14442
5158
4694
2428
1931
8950
584
12254
13802
6452
7027
6716
994
1875
13005
2696
4670
7117
4260
6848
66
13758
8894
13261
7269
8877
6207
10826
8932
8774
9665
5715
3052
3458
5594
1089
6535
8645
13679
14622
2710
4919
10743
7545
11676
10912
8493
3242
9488
14607
14142
11586
8998
3941
12690
2504
10515
6089
7738
9603
6924
558
11977
10021
12811
1739
5392
5986
11638
13452
462
7717
298
118
1371
6430
7487
14134
8443
12393
12845
13588
13101
11500
4010
1300
5123
9678
9503
7648
773
14676
14047
5179
11737
10822
1766
9586
9046
13979
4103
2544
1158
7181
14611
8325
8882
4992
6722
11636
5866
11814
7434
10829
3056
7704
6555
2645
885
5454
9945
12768
12179
4116
5803
3439
9858
2791
12180
11487
7893
9412
13356
3799
1063
14314
1547
13869
1287
3789
13839
10868
12049
3436
9008
6529
3970
14048
1055
4098
11808
13916
5112
5993
2189
2065
951
14169
12354
14373
3016
10016
10555
11528
13511
7573
8178
13134
6314
2217
2117
7706
2169
12396
13571
1595
12757
9660
5816
4988
3014
2156
2732
8243
9184
10186
277
14430
5427
9375
346
13974
7055
1532
14709
5510
7102
13551
10132
5749
11681
4872
14241
8746
2911
14591
10761
10189
1422
13241
8320
8453
14181
229
10520
6553
593
7062
13770
1552
7979
4335
2181
1907
11570
4737
10416
7341
5459
12920
4545
12971
8444
5082
9211
3520
3858
1051
12854
3868
13562
8567
9285
4730
3838
10541
2511
10291
5368
818
11347
13699
13845
10865
5577
10086
5668
10716
6891
1691
4641
9474
8093
6009
12041
3965
14678
6377
3140
9755
14065
3253
4298
5538
10279
10783
4143
1705
12305
14130
1534
1654
9023
13547
8758
9145
800
5243
5190
8035
855
4842
6776
3964
1707
14427
7079
4803
9817
6429
4350
1667
4587
11574
6285
10039
3396
12540
10409
9481
4369
1600
11960
4137
11297
2383
2036
3280
9882
1731
109
5430
3561
1730
13017
756
10423
4263
13543
5681
4753
2654
12242
10808
1944
13267
5377
12782
3662
11880
1279
11036
10966
7328
3668
1856
4112
3917
883
8255
10714
2064
2548
13494
13937
11930
5570
11888
9558
289
10107
3273
5614
5936
14013
10884
4424
5891
11805
13819
11514
10057
4585
204
4772
4024
11976
175
4115
10471
10825
3339
10863
7593
2429
9369
6745
10668
1508
1255
6000
14290
3784
979
2270
5133
2368
5435
2018
2638
5517
8344
11184
2448
12183
12567
905
10118
11710
7313
2295
12541
2817
210
12925
7833
9553
6773
5175
13072
6616
1972
2568
4559
3518
3069
13673
10833
5603
14625
7635
13061
9990
7140
5589
14140
4163
1462
14210
10956
12821
6485
2526
2395
1163
13274
12269
11683
14248
7911
6064
8119
4621
2264
987
6386
2855
1787
219
11812
6086
5512
11927
189
7748
12800
8499
10651
684
2941
12111
2490
3176
14171
11035
4483
5216
12360
14004
9875
5600
11474
4128
2011
12188
6214
13016
11393
7815
13339
12989
13364
14579
7531
6987
11740
7265
7295
13557
11012
8149
2593
10328
11511
8412
11964
7996
1913
2438
13489
12617
10525
8221
8650
11963
3674
1719
5105
1295
4025
10574
6338
10358
3708
13848
14041
1673
4712
10905
11842
3787
7186
5006
5376
14468
9081
12882
1618
3269
12857
5330
2830
2105
9393
2847
11816
2320
9915
2856
10341
47
8112
12590
12544
5976
10701
4567
9138
10762
7316
3100
6327
3159
7083
4665
7230
8750
10770
10644
11948
2866
2026
12930
3640
2355
2896
14459
13883
3391
8007
13200
9295
6999
4724
1135
6744
10182
10713
4060
10963
6080
13483
6461
2133
8281
2618
3083
4164
3441
12780
4018
1948
6185
4871
4592
7110
977
1022
9928
12356
8312
12946
13578
12893
7527
11301
4962
13328
2176
3111
13362
12317
3753
4566
2897
12658
9592
2531
8598
2144
12060
7354
5949
9142
3330
6250
9098
5064
11122
4387
1866
11634
8297
1149
3876
13454
10127
1960
14407
6516
7710
8432
1814
14364
7464
4212
8033
3076
9318
14461
5693
1789
8259
11170
658
10921
4171
5786
8214
244
12571
5855
6296
10904
11446
520
2280
6565
6357
12926
10010
12366
9084
14444
4679
821
8042
9583
587
8127
3283
11618
5658
13912
7811
8980
683
13991
2436
8139
12120
6002
10947
4355
703
6401
6733
5917
3947
390
6049
13697
8722
10176
1713
11380
10076
1115
5291
10787
2576
8062
9891
12660
4783
5204
9032
12216
4538
2845
14398
11171
12200
2491
6269
2417
2877
2749
9623
7344
8543
10467
11663
10839
10765
12774
4351
5205
202
8219
12663
13633
9987
1929
7021
635
9327
7574
2153
11545
4138
6992
12167
7025
2515
13550
14544
12124
7223
2410
6687
14451
11577
10796
23
12331
8366
13065
8972
3015
8469
2666
14405
13803
5580
5080
6886
3590
10337
13911
13181
5581
12170
7944
4048
8801
7063
4790
13785
13398
10028
7132
6593
10285
12526
9602
9952
6931
9489
8363
12487
14232
6819
7743
10377
4676
1151
130
11260
13674
224
9682
12108
9043
234
3509
6167
13090
36
5474
6308
7617
14500
10820
6091
3203
8679
14540
9899
12139
14032
6633
7548
2001
8715
463
12290
13849
11728
11869
6726
11899
7517
1132
11800
8179
12915
7229
11585
9134
11491
11217
6299
6003
7040
2744
12966
8802
4499
5267
2381
693
12725
10960
7692
1316
235
14629
2361
11416
1041
11557
5460
9518
6650
385
3180
8277
4151
965
7587
3897
4288
11420
2687
12912
13021
8852
7285
5843
1332
7807
6353
12484
2667
13068
13432
2190
6899
410
12374
7444
4118
3166
14574
14391
3217
7431
10143
13301
9619
10998
12031
8188
11408
6971
4277
13676
13375
11995
14033
12321
4917
551
429
13100
5409
2653
7477
816
13360
11678
14084
12822
13748
2637
1216
4688
8124
4527
8719
13179
12820
4219
9955
3335
12021
13724
11272
3762
6596
13796
7363
9004
14174
8327
12753
7092
4267
1362
11718
5152
6444
7090
3131
11796
3408
7416
14621
4144
9919
11010
1383
7194
12225
14125
14328
7910
4152
11222
11603
3475
2740
2945
8268
4488
12212
10586
1593
9808
568
2976
9067
704
12579
2343
11648
9358
13050
9111
5934
14575
10769
12748
10914
13032
9140
1520
14706
9177
14425
5842
1014
7534
11576
13600
11950
1456
7172
3529
6850
9547
6450
2971
2516
1755
11947
12793
8372
1256
3331
1647
10446
9782
10009
12813
5279
13828
11318
5618
802
13790
69
10773
4262
7766
170
3593
8074
3528
4437
13781
9552
5209
11609
12509
6680
13555
6696
1807
5721
3314
6122
4331
735
10297
10304
7216
6218
3906
7591
11721
2362
2930
6176
2108
7371
8703
10922
10101
7393
5484
8311
14713
11375
8978
415
6627
12119
7087
5777
10097
3768
9246
4645
4111
5984
3134
6898
1412
1836
12268
360
737
9116
10017
12702
2753
8468
3492
10329
8290
2073
7598
1578
4508
8657
7546
2672
6979
4383
1491
9792
10414
12011
4390
7146
246
12580
2821
1198
6056
7348
10216
2031
6852
10275
11742
7896
12847
890
10296
14561
11311
5890
12381
13098
8975
2034
9974
11308
6688
12785
11228
3230
3734
9195
14549
7227
3284
12302
9359
9435
6387
10964
14206
9141
5640
7515
7822
9299
9066
7948
9427
13043
2185
7010
5149
4554
4214
13120
9420
1894
3247
4653
11274
2557
9653
7524
7134
3665
10167
13532
5449
10582
3511
7803
8803
11460
5937
2942
7336
6467
11529
8024
13866
5018
11087
2811
13931
3865
13728
8948
6954
7620
7575
12327
6750
14721
1381
15
3337
4096
9442
2301
4139
12906
3992
5232
4743
14556
1214
11610
11625
5169
1888
7414
2585
8787
14718
6407
1858
12513
6301
13380
13696
11664
12412
13015
6644
445
10481
9800
3820
3211
14693
8737
14165
11483
7929
4708
10876
3493
10351
14780
12284
9068
9517
3205
3851
2055
11686
5303
9347
9708
5506
6378
622
2214
13155
14742
6997
4099
12585
1176
3150
10418
4181
9206
1399
1204
5751
6692
13596
13119
4869
2538
13860
14628
9970
8150
13775
4362
6531
3991
1133
10943
2765
6561
13876
7015
422
12410
1042
6539
8252
7671
7267
9632
9093
9927
3386
9630
12436
10295
8587
7916
2899
8929
394
10641
4486
85
9226
9245
2226
2628
342
8349
6875
614
3250
7064
3920
6718
7690
2981
9879
1834
6204
384
7209
617
5500
9701
132
1722
12626
4400
14235
6818
5920
585
6919
4967
12979
13856
11199
2644
847
8309
12445
12582
11118
2148
10344
10545
6334
7579
5298
5905
2057
3715
11146
9367
4249
2671
13680
5666
11494
7483
13315
6983
7569
5384
5994
12235
11429
5463
2881
549
6402
6413
2077
4050
7441
12650
1792
5036
1567
2743
2995
6093
9748
1901
11388
6866
7781
8743
11782
7095
5551
4742
6982
2660
13246
9772
1423
7810
13956
8187
6953
11376
14423
4596
12903
2276
5159
11854
3588
263
1779
4921
8202
6140
771
6721
7485
14024
3210
11306
10060
12826
1602
10213
14213
1736
11882
2662
8236
8406
9430
5307
5434
6479
6874
9744
7903
14728
12955
13131
5534
12036
11081
3187
13951
9904
8317
456
12616
1258
1921
9658
5431
8897
4786
14361
6063
7713
3666
10480
12479
2255
9097
13144
5572
7884
13352
8771
7103
1248
1645
1211
11270
14618
1354
3656
10506
13686
13624
341
7967
5960
3604
7887
4358
13730
1331
4166
4417
6053
1066
9988
13326
9215
3763
6090
13816
13230
7453
3626
1997
508
6814
2038
49
14120
7966
9436
12056
12941
14061
7637
12685
13672
13117
9214
8732
13488
14260
179
11113
38
11330
10398
14299
5911
65
10210
13012
5537
8100
5819
11680
444
13663
2862
14164
2909
1798
7783
1537
3706
7513
10824
5268
9185
7144
11112
8218
11271
5935
11468
3935
4529
5530
9187
7507
667
13975
10356
5856
9249
5766
10499
2967
9913
14455
7840
4412
3194
11109
8895
14320
10427
5465
895
13214
11251
12077
10437
6942
13760
12066
825
4997
9033
1141
3996
12425
1851
11942
4173
5295
6552
8348
6161
5507
11359
9194
5231
13590
8337
13045
921
878
1483
1123
1375
11142
3474
87
8426
1470
7273
1946
8540
8871
11029
143
12423
5592
12672
13046
4011
5389
1196
14217
5875
7615
7836
1286
6860
13569
1867
4487
11502
13850
4237
8017
935
6994
2439
8713
1805
14027
8340
1044
4445
738
10702
8855
13445
11556
14357
9922
1825
6271
4504
14283
9075
2273
7578
6724
3673
10687
2692
8358
12902
7459
9429
12689
2521
9654
1832
12173
11699
11196
5388
11319
1033
6179
10359
8490
5593
3163
9532
7830
13368
4857
11451
6247
6843
10099
10093
4434
8741
4082
5727
8763
4359
11602
6723
10675
9926
1166
8160
11188
11825
13252
13053
2948
13410
10102
8638
13994
8655
4586
5371
3623
8702
8646
627
2191
6747
12583
8576
9826
3358
831
4411
11908
4159
1976
281
11566
7361
12524
7016
12460
13111
2284
9308
9720
10172
13320
1333
10338
4667
529
10913
7126
5479
8642
1457
5012
1885
254
13913
8301
317
2458
137
9810
3333
6959
11022
7512
3453
13254
1065
11203
14641
13447
13299
5532
12294
8947
7325
8056
1190
12510
388
5440
14259
4523
6892
10283
7258
6169
6312
2495
5524
12792
866
5916
10732
10817
8424
4537
9058
14246
1084
1588
5701
5612
9498
1327
158
5015
3816
216
12968
12337
3395
7067
3810
3776
13220
5237
13492
2298
9829
10984
3854
13982
11856
1760
3316
805
1337
7093
747
11249
7621
13716
11689
9231
6930
12078
9711
4027
7049
4501
916
975
875
12012
3852
2839
2908
2613
918
11042
2380
2432
9095
11464
3420
12931
4378
1769
14083
2512
4633
12328
2046
7419
8592
5939
8222
4707
3600
3563
2992
6488
428
10444
3647
9825
11746
3124
4310
11852
7873
185
5269
5743
3606
9035
1734
12133
4478
4448
7378
8694
1911
863
435
1310
2914
9719
2058
12527
10035
12563
13436
13172
10696
6600
5735
6729
6806
5731
6870
1486
9573
2933
376
14016
11399
5736
11594
13194
9856
4087
9531
618
3126
2188
9868
11083
3463
14088
7819
8091
2715
12390
9482
5094
12125
8605
2575
9416
4932
11843
5852
3336
13541
14150
1918
8865
4004
11329
6307
11165
4189
8906
9218
10231
6588
1715
7875
7242
1518
5586
9657
867
147
13349
10220
14399
4043
7498
7300
2061
13095
6368
12730
14215
1957
1116
8048
14126
12560
13528
7954
4243
10095
2806
5132
12613
12005
4956
11314
10856
766
1932
6964
13525
7858
896
864
5998
9991
11858
9846
14784
2849
7412
6288
11779
6494
12945
12234
13112
1716
11221
7233
1363
13000
6908
6988
10656
11749
1250
8958
8891
14458
8280
7988
5835
3181
8618
5504
629
14221
2752
1572
1224
544
10945
8517
1937
5797
6072
4973
6736
5030
13036
10463
2050
7468
13359
4519
9872
14054
11716
14701
12532
4816
7288
6236
10698
13396
9959
525
12418
6168
8870
3412
6984
3733
12427
13513
4928
14392
6540
10749
13978
6076
74
1711
1988
8207
9114
10188
4818
9886
1037
3770
11541
11068
9433
11299
2394
2683
14315
11449
12618
10512
13490
1407
2453
8674
1775
12241
6522
12665
9079
7321
1086
2409
2099
3581
9496
496
8097
1959
10906
13044
13361
4326
5
14039
3066
13154
5110
1813
8039
10831
10980
14383
4227
3110
7991
8272
12512
5469
11490
13522
11187
13087
2535
440
205
6499
9411
5051
2554
472
6597
7308
12593
11058
3987
1319
10170
5900
1764
1756
12905
8480
2220
13789
1662
2102
10243
12033
743
1816
2767
6457
5151
12695
12002
11836
1889
7959
5170
12612
4588
3009
11526
3963
4768
1112
2485
9265
6986
4474
13823
12114
12760
4248
9050
5778
3000
2506
5086
420
156
7249
10915
3710
7236
13755
1127
13519
6678
1396
11962
11194
3938
1634
2242
10853
407
14631
10660
3325
10895
11877
7356
1315
1420
1539
14723
11754
10432
5097
6239
1631
7508
12046
8838
5146
9791
9866
8889
11847
6371
1548
2779
14045
13999
13862
9709
10233
1809
3170
8393
1159
14533
8341
12083
3797
14596
8999
9449
14101
10215
14296
1676
4070
10184
5940
11499
3162
6272
5278
283
1013
1389
14436
4141
6144
8177
484
3534
10195
3257
12285
162
1590
5333
10490
767
14585
8918
8318
10308
6764
6785
1034
12594
473
7624
12890
8356
9409
5564
6372
1526
1838
9646
9797
5879
3096
2128
8240
14584
11992
5471
1692
13414
14530
3660
11232
8933
5240
13321
5565
3982
10939
3164
2163
2918
14580
9805
14422
3726
9781
12706
2180
182
8991
6684
3079
20
13685
6180
6675
14741
11731
7756
14345
10711
12773
4239
7454
2106
8839
13048
3129
8917
2865
8184
12976
2212
8308
5628
5395
6341
3898
13693
7639
9491
12717
5145
14395
8987
13517
14146
7118
13011
12679
13148
14208
11788
553
10498
778
10875
3923
11614
11097
2582
6628
2761
2366
12988
8783
10049
844
1304
12557
12866
8382
14763
10722
3241
12553
6477
10723
10830
10615
543
5753
11893
3937
10756
10272
8515
12832
10130
9090
4230
1503
7115
10438
8675
9439
6390
685
10345
475
13407
971
9060
6768
9150
12628
4858
9040
8321
13402
4993
13102
11582
11758
12205
13863
7451
6717
311
7772
1505
13469
842
13546
1941
11685
9239
3836
12823
7428
11912
5696
13855
326
12103
9669
1723
9625
1343
3185
8421
13037
2206
10068
12933
9082
8923
11129
13207
8752
3454
5801
10218
4952
11158
13837
8747
9273
914
151
12729
11770
9286
8123
10979
13812
8380
13505
12113
212
4404
7678
13303
9088
12901
1050
3219
9771
5521
9167
11144
11884
796
4832
1019
12572
8890
11441
12462
10219
172
858
13464
12997
7039
7085
14508
8665
9289
5597
22
12437
8749
559
5003
912
10882
2958
10932
11344
9542
12220
1168
11544
3555
3148
6103
8686
11267
3489
8339
13372
6322
12228
5989
13720
12461
13925
10978
14548
8859
6648
4916
6099
10374
3508
786
6590
7262
8964
3910
3434
4636
6562
4429
12457
5680
8927
461
12558
1905
6662
12014
13283
286
8872
798
642
12574
152
10090
7530
12341
4058
7816
908
4748
3692
14687
7339
897
9175
8583
6657
14598
8691
1917
10518
9563
10857
4777
2473
8283
13972
8394
14173
11967
1372
11381
6098
2090
3271
14291
3075
6362
7694
7297
276
3863
7565
3172
318
5826
709
3567
10926
13455
11096
13276
6646
5503
11385
2805
794
13182
1285
506
11813
4401
8169
11844
13794
10669
13896
840
11383
1432
3307
10146
8125
357
3591
7659
5366
2152
2403
7160
186
2756
8136
2258
14504
8486
9860
3945
962
8738
9208
13456
1480
4989
2113
7309
11949
1543
12221
10836
7368
2162
3997
14117
5178
8922
3986
6670
13078
5795
10491
811
11496
1942
9248
11484
2114
7922
3044
10157
3905
2232
14536
10259
8089
10096
8028
13884
3443
6871
6125
2564
10681
3736
10528
11427
10738
7541
9170
11548
8997
4782
9844
2386
5428
1311
14118
11387
9612
8505
8825
3353
12693
1464
3039
2938
72
7722
12838
7774
11080
5961
6324
3635
4467
3999
4655
2636
9767
6028
2198
2014
14354
6417
6585
6800
6316
14450
14275
14245
7712
13126
5687
12172
13335
1695
8676
11741
10973
7355
2299
10562
5098
872
8666
1142
5878
5622
5877
155
13753
2778
11370
9907
7182
10801
11032
7580
11700
3191
829
3957
8662
2151
2337
13778
7422
13844
4624
1514
11793
12515
11389
2510
9193
7697
7133
1074
13064
6741
12756
13476
6651
697
13433
2625
10346
7661
5452
6265
7787
3796
5374
3832
12365
11592
13593
2793
2043
1108
11371
29
700
8246
1622
6615
4907
10611
9595
7145
14000
12404
6757
8232
9903
6437
4017
9007
14128
9374
2467
7957
7405
7020
1880
6798
4386
3830
8941
1979
12531
7686
2764
217
3929
1626
14707
9953
7069
3232
7664
8740
8115
1449
3960
12973
8912
1955
2344
13721
13256
12273
9574
11612
11970
3362
9703
514
3324
10064
7757
1278
6694
92
10958
14712
1849
12861
6765
8294
3822
3445
10925
3204
5370
2193
7907
10617
3410
4452
2607
9494
527
10382
8010
12985
8566
3503
1105
10726
6710
173
2211
7567
3738
3466
862
11231
2022
8001
4406
10466
4660
6614
14172
4791
3663
1772
3597
12441
1476
3070
3553
11691
12852
5493
2454
9196
200
4682
5264
4859
67
14087
7521
1226
14353
1702
12537
1841
6956
14431
12895
8554
8899
14736
4121
10024
5242
11461
14636
11333
5894
4936
7365
9268
14435
3050
261
6425
5046
4175
10777
2947
1844
12185
4590
5191
3690
153
7666
607
11999
14052
11028
9161
351
1039
6007
1252
3046
11656
5065
1235
5927
14308
8134
2702
10779
291
2379
10809
5464
8930
5391
4837
1516
5501
3128
6949
6586
10909
14166
12682
3679
13201
12223
8730
13103
5090
8012
1186
7689
11116
12477
12038
2223
12144
12438
9652
12091
12809
1992
12555
9157
10629
6591
9293
8535
8893
13014
6558
3459
12213
11875
6805
3750
11253
3385
3653
1245
3442
1995
1056
12573
11073
13941
13619
8235
8496
4408
10111
6134
4081
6554
2027
9297
1015
13873
7555
3471
11266
12737
14123
10588
2726
3580
13548
4460
9873
11532
13008
13736
9224
5722
14247
6821
7563
5433
5359
7185
4703
295
1658
13388
3090
4736
14089
3746
14178
12278
8064
9207
1379
5606
9324
7150
9201
12896
7031
5075
12521
13857
11462
13877
13025
9878
6663
3823
9061
10094
12772
1330
10637
10330
9936
9718
4485
412
4844
729
5187
4085
2002
8248
5697
10894
3192
3786
7701
10082
5078
5426
2591
4958
5266
5703
5755
7829
933
12957
12759
14730
2747
2712
7484
9524
12192
10989
4044
2717
8487
2770
6119
5244
12712
8391
9189
4551
9728
13467
6884
2161
4692
10733
3345
10568
2486
1045
6481
7488
4884
694
9190
6044
8846
14577
51
13001
1697
4423
10110
10624
980
3857
1791
7323
1266
9343
9392
1958
8102
4348
7599
1743
6094
1182
8213
4097
1334
8551
12047
7547
10020
12657
2940
4860
8766
13281
6903
4392
6623
12856
3179
1122
2039
3212
4882
10366
9113
5711
12710
13386
10816
3519
7283
54
5372
14651
7956
12767
14216
14155
1323
8022
479
3664
533
2773
11053
9930
803
3636
12055
8593
14158
8619
4207
3819
8926
13077
12150
12158
14293
2610
8142
2333
13480
12529
861
4986
539
6079
6147
14613
2742
13041
2493
10242
13441
9820
8245
1927
12054
3306
8086
5671
6972
4789
3952
1485
6330
12904
11005
1203
12190
14303
12562
8126
10849
12770
1140
13954
7714
963
4841
1147
10483
9570
13501
6957
8993
10180
2503
6682
6219
11091
8736
10774
8148
2228
6319
7908
9949
7503
1694
4490
10678
1837
6705
2167
687
3643
9983
5995
3037
5928
2606
8271
9376
14684
7162
2311
661
4892
14352
10643
6629
12015
13535
12500
7264
9664
11654
6294
5536
678
9129
1750
783
11440
11458
8049
3036
1738
409
10589
502
13318
9241
11601
3721
8528
5056
13130
7442
11534
2067
14277
7138
1504
6981
3483
11588
680
9839
13408
9173
1443
9466
4190
4418
10527
891
13129
14119
10116
4055
11838
2028
6021
3507
1171
2360
1527
2802
13871
12964
11386
10420
11876
1701
9528
7849
988
8834
3627
7518
4809
11667
3574
14348
14528
6669
3901
8242
8512
6697
11558
11382
9338
14633
4471
14441
14551
4391
11778
13807
10514
13538
481
2267
8614
9522
9131
14075
10957
9332
8624
4643
13051
1114
4376
10065
6911
11034
4454
9071
6350
7909
11938
1434
5962
3808
9281
4136
8352
7818
5420
12266
13920
12889
2641
13284
3342
14098
3063
7691
5290
2443
1627
4370
6410
2079
10840
6238
2290
9761
14002
7693
8037
4550
6631
209
10818
10603
5324
11002
3119
7886
3954
9240
8005
14720
5398
8511
13143
5067
4684
4309
7734
11193
14424
7395
2406
11431
12029
485
4560
5820
9989
4669
2886
13942
7409
11354
13251
2968
6403
4317
11751
7
3208
8775
5805
8434
12075
2619
9979
2350
2623
7179
10995
1153
8023
5060
6484
5212
8639
1801
6
14747
11264
8274
8794
7850
3073
9048
2186
6587
7255
8582
5378
10934
1161
4244
5883
8135
11640
4970
11786
3880
11339
2196
5650
4987
6789
4543
3064
2617
8254
9804
3893
5772
5448
6533
11531
5518
1439
9980
8058
1414
8106
9137
13135
10319
4167
5654
13854
14571
11303
4415
2110
13584
9418
10570
1291
1606
7683
10443
11138
5369
9247
1081
8265
7478
4321
14145
4268
10080
70
12888
4998
5505
8739
6760
14606
5304
953
11020
14452
5829
7723
13586
9597
14242
11911
3722
9104
5657
8671
9117
14664
9057
8302
2141
3624
1977
2922
5211
9188
11887
9697
4720
7492
7582
6622
11275
14402
2859
2620
9870
3272
10676
1138
12116
6489
6708
3291
3767
9323
8279
2725
11377
12791
2860
5168
13657
9272
8082
6618
5571
3447
7494
9283
14282
4563
2425
3455
161
14650
9410
9822
4634
6152
7878
8050
6634
12178
11288
10834
3612
10316
96
3374
2174
2373
14363
5337
9577
13058
5770
10771
13493
2315
7522
2542
12602
5119
9395
9123
5432
5197
7501
6862
11587
7859
12340
11932
12648
9795
10610
14056
2434
6189
7075
2303
5196
5162
11774
10540
12810
13003
10576
11356
11658
1119
7656
3174
9643
8525
10173
8310
1794
5410
7718
7935
10202
4026
10292
11773
2647
1690
2104
3884
10037
7837
267
8121
14100
14745
4255
11074
5918
7278
3778
2762
194
2382
8411
10608
13922
7915
84
5733
12622
978
1706
14432
2353
9855
3621
3638
6158
6208
12776
11017
1370
6068
4880
12880
7046
13965
10392
3701
6574
13094
2483
2820
9733
14677
9580
474
12779
3629
9344
9045
8417
4142
8797
2091
7188
6807
12110
7070
11709
10300
5754
6508
13955
880
2838
10507
7963
11304
9506
8163
2920
2935
10897
3848
4675
13632
5988
7358
4329
3801
8467
12387
8500
1753
14460
3346
13659
6438
13729
2049
12375
13498
3875
5121
6426
5467
12407
5948
1049
1728
8574
8063
9425
11157
11518
11004
13688
7721
9813
14627
4868
1556
7009
11864
2069
4875
3840
8495
2649
14057
11069
2013
9443
13576
8617
13771
10201
10136
14463
6060
11646
2722
12806
5450
917
10023
7392
9143
5443
5839
7073
9014
7952
6693
9200
3546
8791
3183
12842
3329
14289
14558
4539
2040
10791
6202
4609
557
3718
1318
4042
7004
6730
9010
14233
6496
991
9852
14251
9601
11792
13741
2879
5576
6325
9575
1961
510
5791
1890
13387
8626
10270
11120
4664
7352
470
9956
13723
9394
13304
7995
1643
11780
4287
14333
2192
6337
1815
5653
198
13763
9549
4419
3404
14695
9534
11348
6699
418
10234
9105
14404
12323
13705
984
4728
6298
8425
2832
4339
14517
2857
12559
13206
10694
7777
8438
287
723
5555
8940
5043
5804
8586
4078
6447
11284
10050
9182
3661
1978
314
327
10402
1038
9769
13851
11346
10910
11430
13531
4245
13908
5794
2080
8284
8830
8192
9325
6915
10312
7647
5864
7784
9070
9484
3641
4649
2377
4196
14704
3413
900
4282
4931
9274
5767
9389
14426
9417
11707
10757
2247
290
8367
8144
1048
11860
3402
11895
11106
12611
149
14555
2571
3576
5899
9982
12102
10214
2655
11966
9964
4923
3380
14082
9128
9127
9326
6638
227
3122
3847
7324
1729
6112
6397
10054
14696
191
6465
7576
12156
5567
11030
4398
12597
8116
11309
10135
10476
11508
12950
12082
8376
6263
10120
1740
8054
9828
11900
6081
6762
9147
3814
13428
2041
4771
2640
6065
12581
14267
12035
3218
7964
3423
6347
4774
2852
3800
1923
5610
34
14012
2489
3527
1482
1217
7462
2334
1247
3108
12068
10748
1817
9100
8533
14201
5403
8442
10324
7608
826
12362
5705
7231
2412
1962
2292
11552
14765
589
3839
4773
2404
13630
8558
6914
12239
4532
9978
12395
3153
751
7206
13660
6132
1231
10532
3375
5336
11533
3146
10813
690
6782
2650
9615
7401
1637
5494
1669
3032
11635
8612
1892
5312
11623
14261
7847
12928
14429
6601
13534
12299
13059
3619
6427
10417
12578
6234
5515
2658
8864
9316
8905
14224
5033
6480
13970
5540
11088
11671
7801
3766
4579
8914
2308
2465
5699
710
14529
7391
4546
12954
3620
10311
10044
2338
6013
9763
6563
9880
12523
11642
4313
7449
9811
3625
4627
4492
4796
9954
240
11181
698
7260
8346
4599
5963
11078
4131
12959
10126
3297
10340
3199
899
13842
8456
12546
1840
718
13512
426
892
13376
911
14394
806
4729
4863
11794
14531
7597
6490
1681
13784
731
6572
3427
695
6672
10547
5227
6761
7241
4706
9271
10504
6626
8145
9609
12755
8324
820
5557
2893
4505
113
6840
14708
4612
9238
3399
8832
8006
9120
10084
4966
3261
3815
11261
3152
2248
9373
774
13466
2843
5787
3334
4293
8773
5063
3296
5150
13567
10704
7157
7253
10415
8216
5163
430
3564
333
10929
12141
1868
4975
14479
5674
13910
6632
550
14218
959
13631
13602
11419
13603
8292
1442
1651
1391
4913
10164
10066
12816
1160
4969
954
13381
4233
3688
10262
4286
11878
14433
4775
8600
7201
4113
13560
2553
1623
8579
14313
13462
8212
4678
2727
5447
2570
1703
7284
12634
2351
517
11417
12503
8697
12065
993
7725
7436
11905
6164
2547
14236
9183
3615
3913
5346
2728
12154
4524
9515
13879
688
5807
13984
5108
4041
8575
11973
14369
10864
4509
11169
3227
5468
14199
3967
14249
8492
414
5509
3450
6277
1785
1650
1197
8273
8141
4327
6901
7426
13461
5983
8568
11197
11530
411
9334
13938
7860
12359
4583
3243
8334
302
2875
5897
9229
4215
8439
12227
2345
5779
5215
1233
7564
12211
9948
4330
5556
730
11762
10663
14310
12267
12850
13184
7523
7112
3326
3872
9572
6940
2401
5822
9723
10183
12079
12943
4019
13057
12846
1027
560
9613
7394
6621
10720
8647
8288
5876
14538
13108
4371
7727
5910
5235
2842
1210
6534
7702
13292
6046
13808
7077
3915
8973
7420
2735
12447
5025
5661
6948
8122
306
4517
12163
13149
11554
269
10647
10452
9906
2037
11916
13270
9819
13337
3348
11971
12053
10556
12545
10697
8061
3949
12992
7026
14301
2239
14269
9784
790
7931
8526
13599
13893
12703
8669
11752
13919
1737
10294
11704
2974
6742
9262
1523
10967
8094
9561
1860
7536
12833
2923
2323
416
8300
9486
741
4416
12059
262
4918
12652
8911
1545
13495
24
689
3444
12715
2498
2274
11132
8464
7735
13291
2393
6702
6786
13906
13437
13226
10805
7951
8200
1488
1709
12951
12474
758
3367
11162
6497
601
12614
11894
13611
11443
12455
13943
7214
1693
6292
7051
7867
9859
11769
8952
13872
12974
7600
535
13152
13123
6304
8633
6070
6453
2626
5921
4272
6001
6061
4427
9590
4924
4895
10544
12326
13647
12784
4236
6230
7493
11784
218
9824
9165
6025
231
2168
14401
3361
8313
5642
9536
5602
7192
6217
3657
745
11216
10370
10530
3424
9321
4533
8609
2999
4465
14661
4453
7380
7794
11235
2074
7035
436
12646
12040
1
13347
5120
4727
5553
13196
9087
3494
3411
5419
3618
7199
6707
1633
2271
13900
2250
904
2016
12148
2433
2523
10354
5005
14789
6802
1474
8315
8084
401
1263
4835
8459
1546
1689
3633
8903
11589
2573
11324
4195
7259
13882
11943
10626
669
8299
9631
4204
4209
2833
8423
195
8920
13921
6344
10878
13417
13717
7104
1030
1835
3552
2934
2980
5092
545
2116
3569
13300
9428
9624
8812
4281
6883
5768
11003
3373
6998
11901
405
7294
10965
9076
6110
1696
871
5930
7870
14589
14300
8270
13985
13019
1006
2238
3835
3748
11166
5716
9078
1575
5458
241
4375
9662
12442
6756
1012
8813
5164
6244
6689
12651
11043
9015
939
11293
2029
3500
13132
10365
14152
10788
10456
5375
13752
14729
8585
9520
11867
1177
7108
8910
4808
6216
8427
2616
5769
10352
8275
6398
12343
13122
2876
9969
817
10559
361
7654
7050
7660
546
11136
12270
8711
6366
12975
12406
6385
10952
4154
349
4620
12475
7623
13665
14412
4323
11
450
1328
117
8796
4974
8943
854
7551
4548
720
1981
14760
10712
2003
465
5139
12825
2815
3501
9921
10058
11201
7256
10004
14527
13203
11334
2372
6165
8396
5776
10310
12588
3914
7319
4522
7078
6405
10306
348
4305
9935
9687
11262
873
13811
3313
14594
5199
9485
12030
10434
7924
11095
11519
14637
12413
13245
1466
10730
12837
682
9055
5552
5306
4964
13678
596
2330
2960
14599
10680
11925
4006
13325
11974
30
3562
315
7667
8823
6146
13709
1865
14274
3825
11892
2213
14143
6511
7572
12939
4935
6074
3885
4289
14077
14758
1967
531
793
14683
4069
10003
9155
570
4721
1512
9691
11850
1810
7506
9914
114
4979
666
10169
305
2707
4252
11437
3793
7418
1408
10705
1829
6793
14096
6868
11286
11879
12449
17
6909
3023
6475
9169
11759
11471
3127
1429
13430
483
10941
6647
3795
3256
11150
12697
11647
1155
2704
1100
3536
2782
11898
7731
5311
10827
11213
9505
3747
11442
10600
2060
2975
6463
6419
4980
1680
11226
6391
3739
12879
6030
2150
13060
13298
7688
4769
12913
1733
13225
10860
1350
856
5997
9263
12264
7304
5775
9507
9122
9402
8656
6523
10548
12019
8654
789
11477
12209
4071
2913
11953
282
11657
3727
8040
10144
13074
9543
10510
1951
8786
14757
5632
2076
8068
1956
13552
2021
8365
11993
1320
8661
9381
7673
9361
3682
2709
2729
11848
4562
5172
8004
3517
3811
5669
9564
6876
10877
13508
13139
6142
13795
5635
3206
6439
2209
5579
7939
6323
3798
9835
12736
6841
12908
13867
417
1225
5069
6395
8808
6331
4075
3538
1207
14262
923
8673
1906
849
13702
5126
10290
11968
11023
4297
2218
13774
14019
1031
249
3741
1903
368
4296
2964
12627
1850
6869
4256
10692
11986
942
4426
14381
8072
6455
9459
5293
6974
10505
12953
7034
2452
9777
5691
10795
4186
13265
8788
14497
9916
13641
12160
4469
7203
10187
59
5709
12870
4449
11404
102
3312
780
10625
2724
3695
4618
1342
11715
14567
4823
11512
4109
1036
7053
14367
2137
4897
12803
5473
4094
7627
10613
8779
4751
4
14385
13830
4366
6058
3547
12086
7383
8130
13082
12720
801
3292
4817
1451
11000
14095
1529
8556
14738
4934
10181
11996
8965
13189
1165
1193
3700
2760
1249
10435
10059
7012
11723
6506
11052
9594
2261
10334
11054
6408
13734
11265
5040
13759
4148
3573
12282
10400
5837
1453
14225
1700
8407
996
2146
1533
1277
3235
13727
13406
9051
8537
8109
4797
7301
8561
14284
11391
929
10974
7854
1607
480
3425
8157
6209
446
4898
13496
13127
3583
14474
1274
3102
14777
7435
13228
6612
13478
8753
12936
5238
1213
6728
8016
14304
4502
8203
10558
13506
11910
6020
8282
11688
9794
6017
10472
10322
4405
5406
498
12161
7641
12104
2785
9925
10032
14136
13323
13514
12781
2863
9760
9840
9096
2953
7994
7286
3401
9277
2081
11040
8166
10598
12569
4106
9995
3231
11914
1431
10823
7657
14682
3281
5896
2539
2135
567
13399
2652
7765
10081
2723
11247
7427
1023
7789
1597
2621
5689
1494
4200
3650
12140
3613
8873
932
13604
2431
10138
748
12701
11539
10205
453
2134
2430
3077
6446
9940
2898
7972
1522
3456
10927
12330
3317
1368
14710
6258
14669
1220
285
9694
12473
14787
10550
1394
13486
7999
6313
9467
1148
11611
14023
14699
12023
4876
5259
5497
8842
12542
6518
64
1823
10244
9599
13215
6700
2063
12472
2868
9476
3120
11726
8462
1620
5523
5181
11024
9677
11743
171
6383
11790
3251
12993
3779
3966
3775
3900
3467
4598
2245
13930
3407
13952
10585
10494
12863
4570
14254
14258
6088
10684
1768
3594
8475
10992
9472
14081
12696
12680
5573
3698
141
5310
5525
9753
6542
14018
14440
5626
10970
12107
5676
4325
14371
7202
3448
7005
7824
1599
8806
8164
5382
8967
12238
6641
4432
9951
5925
9303
3364
10859
8080
10055
11767
11066
11243
8632
9440
12637
727
12608
11214
2149
1107
10536
7604
5870
3946
3007
11019
14133
1938
4349
12430
3417
12446
12934
12397
4906
5383
7198
13235
562
11421
95
13007
4568
7790
8518
13733
1621
14203
2147
5903
5284
10870
12109
4839
14674
5351
12171
4224
13516
5847
4828
4090
9676
13581
10987
6787
1998
5174
7334
7729
5861
6976
8760
648
2880
5109
14560
6351
7275
2596
1397
9675
1076
9550
8992
4470
777
13740
203
2631
7400
3687
12482
3143
1005
104
9848
11861
13468
990
9021
8862
5436
5461
636
2328
8449
4549
7281
6381
12798
4360
11802
12752
6311
5859
2677
10883
10071
14506
726
12300
5798
4107
2068
6404
5982
1583
13137
10034
3084
10784
10557
4062
12357
10592
9019
6625
4942
9225
13421
14587
2492
2714
11459
8450
13962
6423
8489
11547
13613
8685
12483
5049
9944
14690
8692
4211
10085
7843
6343
5846
1465
11108
8853
599
9874
12383
649
4770
9785
10383
1638
7372
14510
4754
3177
14131
10622
10161
5182
8742
12196
383
4652
12304
1501
7817
9746
13395
9462
11049
2419
13563
6546
1294
3554
8167
13997
13250
3265
11771
12417
4290
9831
5248
2286
2282
271
813
11564
2781
3252
734
5646
3438
13006
13367
9884
8261
12026
8780
13159
13766
13287
3012
1267
10654
5526
13615
1935
4368
2269
5488
11352
9910
11823
14648
4547
6211
4726
1289
14612
8361
10652
1075
742
13481
11599
6725
5272
3578
6681
7000
8377
2424
13840
9958
3245
12995
7700
2387
211
4735
14782
2399
9686
4990
7936
12072
3123
6340
2775
906
9288
10454
11719
13097
11952
12667
646
13549
13415
12428
913
12373
6573
11219
8815
193
792
11079
8851
12508
11982
8249
13499
9171
3916
8291
1745
2205
4597
7949
2532
9548
2363
10735
7914
12638
14295
11312
1553
5335
1506
11615
6966
10764
13285
9764
2000
1585
11119
12937
8672
10137
985
13278
13894
14415
11326
14400
4373
13091
10379
14535
10573
5103
5543
1016
1699
10075
4915
4999
14419
13255
6799
13689
1536
7736
135
3630
5424
4929
8155
10462
5660
12874
108
11831
7808
576
715
9502
14657
14770
13174
1540
14582
10789
166
6283
7940
6394
2127
3676
1061
10725
5744
3299
13400
5414
10638
8850
13244
2819
1674
3550
13847
5462
5325
2771
6486
12415
5348
8171
12319
7846
668
5088
1351
5828
2597
3340
2929
9679
8092
2569
10982
4180
14337
10523
2579
6151
3523
4088
5656
9689
5748
2047
3575
9319
9253
2799
6225
1281
8045
11939
8726
1497
13293
4178
2927
4353
7852
14694
5915
12240
1296
14159
8002
12887
11145
11841
8332
11094
2867
12670
1011
12742
14602
2082
10236
1879
1185
12619
10388
12561
630
6181
14094
10736
13782
12673
1459
10147
12168
10373
12069
9125
6038
10881
8241
9508
14590
11173
3286
1447
10235
5872
12795
13404
10717
11946
8924
4229
3107
13317
1854
5659
7636
3165
5599
5412
5328
12204
14266
13582
13236
9251
10106
12232
9094
3934
14600
1710
10543
8322
6576
2904
10367
9912
1421
12747
58
12493
3704
471
11282
5456
5091
14219
1411
11469
7767
9480
13846
1314
11315
9513
8979
9693
6613
14578
1144
7408
8447
11140
3749
569
5616
4129
12465
9610
1492
14194
4031
6431
12749
13009
5765
11643
566
14783
6376
9039
10924
10686
8909
2305
7072
10844
12378
8785
8608
7519
7876
13905
1046
3544
5832
468
14309
1445
8720
7043
5946
365
14413
3054
3116
12758
10326
6579
2634
5814
12504
9054
441
4476
9483
2244
2010
11804
11787
4716
3697
616
5821
13282
10217
14443
1811
14323
10786
6464
10171
13953
9478
4847
1953
1446
9957
12669
3845
3332
4038
3936
9680
13450
9853
12489
11255
14325
6451
9469
13769
7925
1104
7680
5914
10411
13485
11153
3513
14157
1390
5741
5061
7153
3694
12253
1471
8452
14749
9869
10790
3114
4314
4867
5943
1110
6495
8408
4206
12980
1369
9159
1490
11553
5871
6361
6847
13655
4755
995
13084
8138
6827
8570
2686
10393
9636
7143
5347
13342
6822
2937
408
10780
2415
1804
12177
2841
3094
10616
5898
8968
5007
12080
1562
9731
11785
14568
3912
9559
5201
6947
7755
5585
353
12147
13076
11571
3322
12681
8548
4130
5224
455
11410
708
1498
2734
14532
10959
1406
4900
13533
11687
8071
8128
14421
1058
8140
9397
11130
5445
5845
9931
13553
3601
3160
12469
9710
4257
868
8198
5734
6635
14489
6879
3742
679
11432
12263
5684
6817
3460
5823
1240
13116
1475
3278
7184
4497
4894
4849
4332
7113
2352
13393
638
11363
10174
3751
922
10131
6910
8884
13836
10029
2962
10519
2233
8689
4541
12538
12289
4960
3712
2096
9108
1698
9305
7526
7882
7649
53
9470
6406
5031
2260
5527
10123
12862
13628
7136
8514
8757
7282
7619
354
11978
2221
7213
10289
9309
13653
1899
10287
6962
5309
400
8826
9525
13992
11143
14121
9963
10741
9192
6548
11591
14332
13289
8856
7496
7782
2413
3426
13136
3435
12659
8953
7990
4515
14406
5535
706
2007
1077
12145
12496
6019
11240
14552
9460
2482
14516
10203
11009
3055
2101
9911
2818
5234
14572
2528
3833
7504
13713
14583
4174
7318
9984
7968
2414
1367
4464
3589
13977
11732
4192
248
11300
12076
12181
1781
1336
8916
12969
14653
809
3602
8928
501
5522
6104
13637
6051
12664
2950
1068
5706
1577
14722
3812
7642
9203
3846
8630
7381
5429
3756
1200
4855
9101
2210
10038
4792
13354
14456
7218
1009
1788
1413
10288
7601
7739
4794
1386
7535
12392
4235
9475
5128
1640
7943
11503
12063
13453
3505
5339
6123
13173
3995
2629
4943
6653
1440
6837
10896
10048
8386
2853
12347
5802
14375
12256
1424
13939
12309
3155
2259
13788
5881
11917
2978
3001
12443
1758
12707
4564
358
13071
10276
14069
9133
2988
8867
14050
11567
8132
482
3403
1724
8915
10083
7802
4673
2825
6973
12368
3592
13681
4630
11290
3565
11598
5637
421
5682
2969
6131
8971
753
6996
8876
11048
11669
5745
11725
3925
2887
1405
2905
11335
13756
857
8244
3927
7458
3121
6291
5257
11791
9707
14137
4690
6824
13990
13033
2656
4479
5180
11259
3703
11331
11092
9258
2983
11280
7058
12910
14001
9726
7681
10154
197
6896
13735
672
3499
2580
10508
9434
14234
3239
11795
3189
3902
2851
12128
11100
11889
615
7370
6844
7174
14645
3558
8798
12301
9734
9997
8059
853
4020
478
12452
14592
5387
10196
11191
8822
7927
1325
8819
2803
7228
9109
3415
9083
5548
12361
13924
2329
5153
7977
11504
331
3572
12802
11572
3684
11156
14191
590
1489
8353
8105
5970
1802
11414
3105
12797
6828
5071
4500
516
7047
3043
13963
8103
14141
7525
8096
5280
7921
6637
7989
14360
5762
3381
2759
946
14035
5759
10670
4795
4799
1306
4396
9164
11160
7382
4072
8709
8677
12873
5446
61
8571
3151
323
4939
14438
1908
12044
934
7894
9228
2420
12678
12433
8793
6673
3522
4697
14656
9348
721
5245
14525
14505
1993
12949
7880
8707
11845
14608
8770
5489
11824
8215
8857
2816
12789
11705
10238
19
4303
10486
4240
11624
6856
4428
6273
3731
6416
6753
14705
9843
11390
13968
9455
9901
4336
9260
2375
11679
2071
4686
12620
1861
9468
14240
1191
943
7800
4333
1558
3881
4124
11826
10542
6719
145
9933
4525
8892
5095
1062
9154
8777
6829
6727
6384
2545
86
3616
3062
6135
3485
10691
288
8681
1301
5965
10802
5394
6746
7906
13096
11595
10485
998
8520
6820
4033
6011
9139
9600
5399
8861
9714
13822
6713
11006
838
10948
5611
6412
2546
4972
14564
7448
2915
13425
3010
9317
8509
4380
11392
9301
11933
4165
3571
9908
4216
781
14253
9649
6370
8296
14554
14717
11063
8152
11134
3877
10690
10133
9770
2020
5880
14099
3372
11542
961
8670
3041
14068
7491
7747
11510
8807
9473
14595
14751
4644
4927
2757
13054
8501
6790
6474
14617
8542
13307
12182
8436
389
3531
8640
7475
8209
13589
10364
7558
14410
10361
3092
583
12909
2891
3068
5390
11621
6598
1720
7245
13080
4750
4677
14049
7528
6517
13403
7759
1619
7141
7187
3
14491
2780
5096
8510
10
10266
10962
1427
6287
10256
11139
10677
9292
13211
8536
4657
4580
10098
160
8663
3209
7975
8988
13024
11929
12271
8710
6442
2970
6580
13973
12881
10197
7754
6141
7520
9252
12255
1092
3659
14735
6690
2562
10318
2240
9998
3462
9446
10040
12045
835
9705
14287
11761
11485
4865
6037
8858
13107
6170
4850
8986
251
9966
6543
13601
2457
7889
3118
391
4671
1878
8523
782
1174
4601
2745
10569
10228
2444
13961
3702
14114
9222
1437
177
4157
1613
11760
13470
13473
7728
1982
8603
3827
7155
2701
4661
14066
8231
7571
1215
13518
8060
7510
12494
12127
2956
1223
386
11507
6278
12432
4516
1452
9888
4468
336
5274
9284
13712
11008
6720
11320
13444
2931
14014
13169
11969
9924
5438
11745
3298
13504
14493
1288
1989
9778
4047
8970
5480
9163
3826
71
10642
3959
4388
5441
8373
11870
6262
12495
12940
7827
9546
1896
97
7998
10251
1183
2421
3782
12377
7795
5027
11517
12358
13392
9432
9787
1093
8206
6583
316
9897
8336
1771
10871
9698
3989
9871
299
10389
7942
3238
13389
4723
7982
4984
1059
8057
10257
11810
7841
3551
869
14545
2234
7480
14449
8907
6524
1128
13227
3305
4521
14496
4318
13917
13983
11090
13118
2731
9850
940
6153
7762
2456
12987
9282
6310
9339
8250
6062
14557
13948
4886
2910
14377
7425
9000
8885
14009
11198
8559
2572
12718
936
8555
9158
5840
11632
9663
4812
6706
7791
9219
5188
3145
11617
425
744
686
5070
677
4346
6880
7175
12868
3472
9923
13442
5342
5561
8545
12790
12257
14609
5343
11665
1450
2685
3732
5028
7584
12891
458
12938
6380
5062
924
14156
11727
3400
6493
13168
4681
3184
4826
9399
9278
6460
2125
4407
11422
8251
7443
3853
9757
12750
82
7640
3473
3078
11027
3020
1032
13268
13133
8751
5608
1573
870
3327
13853
6577
330
6458
11538
3099
12722
10649
3821
1714
3197
5035
8335
2614
1137
9752
5208
11085
889
10953
13666
12818
11268
493
7268
4176
7669
10565
5725
4217
12506
3774
9739
8379
981
13018
4933
6559
3728
10706
9458
4238
2012
1796
11351
764
5001
1601
3350
7857
2
8990
674
8767
11756
10002
8247
2812
4345
427
4821
4311
7695
652
14519
670
11327
14271
8898
11362
9227
2183
5364
6581
14414
5247
9582
259
2312
10089
3723
6826
9890
3005
13124
13780
7205
163
13801
11114
5690
264
3939
8589
3783
8435
2341
5241
6329
701
2052
9330
3971
14781
5258
2388
7439
1887
12525
9650
2278
1026
10347
11013
9298
5019
8936
6652
7973
964
13422
8383
12401
2437
5569
4484
6842
105
2476
999
13262
11940
4595
14445
10281
7440
5609
7658
10949
6126
13157
8919
5550
1603
1157
11697
7024
13465
2678
1052
14015
7329
1763
1297
4582
10983
6101
8108
5332
68
12143
2044
2872
6752
10531
1661
11757
11135
1549
6519
6665
7676
11766
3359
9031
9179
3637
11466
76
3855
1561
5719
6266
6111
10103
7611
14702
11209
14767
12134
10152
5362
9932
9304
14086
13034
10261
10115
8220
4725
11039
9514
4804
2119
13833
13311
1909
6251
3338
14624
846
2790
12864
6411
300
12237
7279
10744
2736
7438
902
11722
4981
10843
2304
8701
10314
13248
7533
2408
5360
7244
355
14511
6005
1079
228
6192
860
14507
4651
3512
14675
3678
5155
4342
8013
11406
6105
9551
14180
297
13125
13670
10975
13640
2499
12403
12723
2973
4068
7566
2889
5882
4963
6024
12175
1936
5077
12829
11524
13128
8195
11853
11765
7421
2823
7330
13431
3930
13605
972
6505
419
11444
8615
2263
14643
5016
8995
9521
2502
6594
5800
9851
8107
14365
657
6138
524
2199
13471
5050
4477
5763
3541
11107
5143
1704
4610
4494
10378
7158
2873
1312
7306
696
11783
10854
10350
7343
4201
40
10036
4466
6268
2991
4561
8182
14067
2157
7473
6566
13217
14605
14294
1770
7947
13824
681
5207
4744
2894
6671
702
1826
10810
13224
1398
4759
1290
6320
11835
9314
7131
4105
12000
3144
2484
8733
10413
7204
11159
4161
10902
5495
4093
4520
11489
937
12653
12421
754
12654
11628
12095
5967
711
8849
4188
13191
1947
564
8544
13459
14668
746
7663
4762
14553
14623
9174
7672
6835
12384
10653
9341
14036
4888
8629
13427
6734
11886
4733
1949
7018
1125
1349
11957
11781
8804
1799
3480
14446
5422
14183
10721
9242
4890
1269
4275
1324
4228
8982
7505
4544
8217
10517
931
9968
13066
14635
11086
8458
7002
4283
3539
2566
7606
9814
4625
4064
8286
14031
9009
12260
5985
8345
11713
2919
6107
10458
5425
