1549
316
1237
1552
1071
1259
1053
1054
492
464
613
432
723
1718
1696
739
1648
1145
1607
1035
1036
405
406
407
408
409
410
657
553
483
941
240
237
587
711
1562
876
877
375
869
154
155
413
292
334
386
1589
1183
1426
549
548
182
1134
1281
8
1667
139
1434
351
345
1058
114
1557
1558
1212
573
586
1160
1159
146
842
1264
746
1261
381
628
238
515
1339
123
1026
647
305
1637
1245
1433
1008
1311
1039
1000
173
933
1477
38
1028
124
128
597
1668
1515
572
1588
1506
694
115
1117
1075
340
353
389
633
210
445
1037
1453
1090
1561
344
327
361
329
286
902
874
875
1065
1186
215
1499
1024
309
856
446
447
448
326
556
843
153
921
1002
999
1524
1523
753
546
32
566
294
692
1044
1519
1520
1521
1522
338
678
1165
31
629
1454
784
1278
1456
808
374
736
1313
104
578
1342
347
1034
743
1085
171
734
766
280
625
1655
19
42
279
412
454
714
718
719
1591
1592
1630
1302
1631
1338
1512
1253
1384
998
1666
1083
195
1027
277
732
438
636
637
638
346
1428
689
690
1247
1250
297
750
937
567
584
682
349
831
141
1285
174
1704
390
391
1077
136
295
1716
1323
1418
1419
1228
1229
1548
1530
1531
1533
1534
1565
1150
1639
1411
1610
1417
1331
99
859
1042
1043
873
476
477
470
1344
1508
823
25
695
1424
972
283
1671
524
530
726
728
1230
143
881
894
953
260
777
157
140
130
1455
1076
1152
459
741
1356
289
1263
929
1569
781
550
757
539
284
1415
1385
807
1494
623
220
304
129
107
635
939
1110
33
1563
1680
181
1390
1379
959
563
1357
1358
860
97
1551
1400
1294
1295
1619
81
335
336
392
1436
1193
1277
1119
489
525
813
649
1060
1600
1064
1057
1290
1291
1438
455
213
20
796
1473
665
666
1176
1615
534
526
1410
1528
1529
117
7
462
865
306
1393
299
300
619
620
621
1033
1374
37
298
1420
1364
296
579
533
538
767
1679
622
759
760
518
1464
944
817
822
824
245
246
1182
708
1184
913
382
1078
608
1269
82
1122
1320
975
1609
176
1601
1706
1537
1114
63
324
1689
1711
1660
1661
80
1443
758
1326
183
1267
1404
1203
1107
1108
1109
1153
1712
825
323
70
1121
559
307
191
806
168
624
21
735
365
1163
180
457
644
1451
502
905
688
1423
321
1167
165
612
1168
1346
1429
730
1406
13
1414
178
177
248
930
331
1123
383
1125
804
1587
849
1504
1505
1381
1382
1262
1431
258
917
372
332
900
1101
68
1547
1266
1158
749
1023
1556
1555
1401
956
377
275
1352
1425
950
293
936
1690
1301
54
1713
1129
1545
1553
774
1371
514
1175
212
1402
1482
991
693
969
1031
1444
733
1154
1155
811
581
583
439
441
897
1509
1540
1067
1069
65
775
1437
287
609
610
891
1568
1421
834
1310
463
1445
5
250
1178
1180
36
322
1360
1490
1187
273
1518
725
1365
221
388
1241
1685
257
1324
1486
1487
363
814
1337
830
697
729
699
700
826
798
1376
1377
833
1286
1581
1646
1507
1128
1126
1127
1147
1049
1644
1737
1479
1025
1500
450
1651
241
12
1407
14
1409
840
783
1471
419
420
255
230
1566
1469
1513
923
924
1174
786
1249
1539
145
1192
1432
669
98
1210
1586
1363
355
325
62
1669
1670
1672
724
885
121
1403
872
339
976
868
827
288
207
208
225
866
1181
1309
78
1041
1643
453
632
768
67
278
691
1199
568
150
967
847
848
789
1359
582
440
427
228
426
185
1185
1659
787
977
978
1010
598
599
600
601
984
985
986
1016
607
961
1146
1148
1149
465
429
415
416
135
1312
137
1460
1246
366
1608
1605
1387
1603
1282
670
1248
6
118
216
214
1244
1662
1321
737
1478
974
751
968
219
701
163
1045
202
762
571
617
1594
1514
661
254
1013
261
262
1292
521
531
1196
1091
1092
1093
1094
1095
1688
1100
1213
1573
722
1080
918
815
60
75
1211
1318
850
934
560
857
810
911
147
373
1599
558
1009
809
820
821
1059
281
915
34
312
1618
1544
846
55
100
1369
614
1020
1459
611
1717
828
590
517
920
1082
1728
233
962
980
156
158
159
1642
1040
1736
508
509
1099
364
1087
1559
1220
72
71
144
658
773
1497
442
1457
399
400
401
402
403
404
1328
1543
955
755
1392
1447
58
1063
904
906
907
908
909
892
507
626
763
547
452
1583
190
1654
659
179
803
1707
995
66
1296
1298
350
290
164
1050
74
510
893
504
505
543
371
320
662
845
421
310
311
1435
685
1001
1046
1458
1162
1236
24
23
1541
1322
1636
1188
727
958
252
1673
101
1723
1517
778
41
672
674
676
677
1413
1647
681
478
618
187
1572
721
417
418
957
1194
801
368
1115
1195
497
499
500
501
276
853
1449
1461
1462
696
1575
1576
835
981
982
1439
1427
797
362
1616
493
494
997
1617
315
1086
712
1629
1538
468
1003
1197
394
387
863
862
393
433
1177
1179
266
1341
1627
925
926
882
668
1198
395
396
397
398
664
1691
1422
1111
884
541
540
1699
1516
1650
1448
1131
1066
742
461
1284
1084
979
138
184
867
263
1268
890
1074
1137
1138
1139
1141
1142
536
523
1005
1216
1525
602
713
1656
1527
1440
1334
1307
1308
1217
570
1604
1495
794
795
1375
319
271
469
1200
561
264
1624
1483
1484
793
656
596
1047
1694
704
705
754
519
1172
1682
9
1663
1675
1676
1677
792
506
888
1452
1491
1683
113
1595
116
886
1072
1073
765
870
912
206
194
966
1354
1029
45
565
667
1446
1143
1560
1703
437
1097
634
645
1474
1475
132
485
142
1279
1574
475
414
472
474
528
537
1166
990
473
87
88
89
90
91
92
709
1578
376
59
1293
642
1120
1214
1687
166
1204
1205
1206
1207
1208
1209
520
460
354
791
188
203
328
1238
854
49
50
855
931
1161
1289
1299
1300
1695
1698
1305
1306
1700
1701
1705
1191
43
1729
1730
1731
1732
1226
1234
1235
77
1408
1022
1330
1329
431
122
125
126
127
1652
1598
430
422
1132
423
1133
1136
330
189
1582
1686
10
11
1720
1726
1727
1620
1621
1622
1625
1626
1638
1640
1641
1394
1395
1396
1397
1398
1399
1546
589
356
964
799
487
686
887
253
683
222
779
731
780
479
574
1633
616
895
1144
1011
1231
914
1169
1725
1252
1062
1116
1273
1271
1579
466
1232
384
756
1256
1270
1391
251
48
1164
1327
1602
53
1255
989
987
988
22
1702
193
148
444
896
1314
1315
1658
910
170
313
1501
1140
604
337
1498
106
871
522
532
1224
745
639
640
1223
133
1635
971
1697
370
243
1585
1370
839
861
152
235
488
131
844
716
717
1590
1239
1240
1511
1254
1112
1113
945
946
1653
1068
1019
17
259
776
4
385
554
951
1274
1275
18
167
1030
108
109
110
1332
744
232
552
1173
1304
1693
1190
1170
486
61
1493
1366
1367
380
411
663
1242
46
0
1
1710
1606
1070
832
1362
654
655
651
715
593
196
1272
317
1265
76
591
205
57
1006
922
1098
557
555
1280
1628
1383
996
535
527
39
1319
935
769
770
1283
1336
1007
1597
595
883
274
1345
198
424
993
1503
970
236
851
594
852
1012
812
2
1724
1649
1202
