468
126
652
251
1607
1077
273
532
1182
987
6
184
587
1353
941
1531
120
76
261
1261
573
1225
1652
1544
712
1406
242
300
534
1217
462
937
1469
356
1118
568
177
743
34
80
1221
363
1303
1335
485
719
1153
763
520
484
1271
1437
47
1282
1606
993
1664
53
752
867
381
988
441
1038
996
256
1632
107
1197
1520
884
1343
1599
624
1541
1629
415
1454
940
14
1174
667
754
1421
832
676
903
1284
18
912
1198
1028
1183
1129
1626
800
1673
1553
235
150
253
1328
270
661
1543
1325
154
805
449
1390
535
1491
671
1101
580
1622
1644
787
305
1143
1213
647
1372
163
517
1076
1287
1717
478
39
973
312
1580
1157
189
1501
1250
801
264
925
5
58
430
1049
598
1374
1321
1447
1113
324
695
569
648
1031
219
1398
1642
193
1420
1190
1331
544
19
1554
1429
54
1509
1442
1568
521
1659
9
1231
718
644
115
978
775
945
82
859
1208
1338
1091
1737
835
608
66
85
1449
92
789
1173
124
562
558
1039
572
943
231
17
255
782
52
947
1399
222
1309
1022
1243
280
1536
158
976
161
1657
494
1311
1706
541
490
1237
1295
1191
931
445
1155
505
1148
1058
1270
1700
829
1330
847
586
1409
1133
837
1012
225
1672
658
750
1486
516
726
1667
621
143
1467
660
1484
1068
990
1124
492
1185
4
206
486
221
1699
1653
459
850
437
1703
853
31
1368
950
1145
1111
730
1530
1108
674
540
382
1136
887
734
89
585
737
1265
1276
179
592
384
1001
301
1219
1063
615
638
1723
393
328
396
476
791
173
921
272
229
570
547
1481
1665
1032
470
482
1002
1378
194
262
602
1062
1576
526
310
1366
1281
898
1034
345
350
411
795
455
1590
1094
135
204
1095
200
994
1315
1041
319
144
417
627
794
717
317
1319
172
364
1051
823
1299
1246
1620
22
1008
45
1306
1582
61
1539
1490
321
902
1597
774
1416
1613
680
655
1463
27
515
1169
291
913
464
972
1424
212
428
1150
1591
1361
1293
622
1619
443
2
1320
1470
962
685
1456
663
1194
213
1494
1017
1506
1288
900
664
446
890
510
934
96
180
108
914
1030
1572
1099
1263
1
1589
923
1432
563
48
758
955
817
1394
722
1065
523
626
524
1275
1352
233
1165
999
1131
435
77
1262
217
577
1092
1668
357
55
844
766
710
1059
281
1513
1567
226
304
1010
220
439
777
1648
1574
1162
1202
375
297
367
1388
814
554
1004
405
1116
336
537
1007
402
1220
820
1137
767
904
930
657
824
1693
581
1550
1595
673
365
1300
461
42
1342
1697
781
551
278
654
186
846
1269
531
1610
1537
1579
379
1720
694
1045
1609
575
908
311
1733
1514
1558
584
869
1382
1701
897
423
714
543
142
1122
1268
868
992
692
559
260
920
732
873
116
243
332
1729
56
1337
414
438
1594
739
1296
1117
1468
29
35
1734
425
1431
1573
1461
765
1647
1235
528
1598
1064
816
751
1100
1450
579
1201
583
684
802
553
1511
497
1448
977
434
1211
1503
1727
1498
1289
40
1186
75
1009
1196
249
1354
918
729
188
1422
314
8
1690
1458
1395
1104
1547
807
1400
1493
911
448
1347
467
1389
197
625
819
831
1466
826
1702
245
404
1499
731
798
893
480
1559
1651
942
749
287
474
1273
799
1370
1310
1253
1471
1656
672
1617
429
1392
728
164
1240
698
746
889
1061
1674
196
477
1523
574
1232
49
1203
650
1158
1561
969
834
864
1542
44
1425
247
1730
302
588
1373
271
678
315
1230
285
1200
545
409
341
469
366
1304
322
1633
1662
70
1085
504
10
691
1006
509
989
1384
1527
64
905
1187
1650
419
1285
1144
207
330
489
1596
1708
1054
533
1666
662
421
768
1379
998
595
1683
1386
475
1577
133
15
442
1635
479
1675
1109
1172
1096
699
1453
1140
709
103
1256
60
951
78
394
167
1178
1504
1195
1135
1562
352
187
1377
374
119
906
254
511
1725
313
723
1264
398
1507
701
361
885
265
362
986
1210
1608
1464
984
640
1660
1176
16
51
1332
496
607
1649
1071
354
790
1715
1587
1000
877
97
1519
1279
1517
198
1070
185
1528
1689
619
964
1156
688
538
616
693
991
81
995
400
269
594
389
1677
1510
134
267
1134
1435
981
88
928
38
968
682
1294
635
1344
1025
296
263
1052
1636
1433
1686
408
1728
359
614
1159
241
1515
965
1628
121
1080
1057
944
757
377
456
110
1418
1480
953
1364
507
1643
1267
1033
735
413
1132
370
811
1719
387
202
949
65
1443
1046
1081
274
1512
385
683
240
1199
1272
546
481
1097
1340
1564
1238
1408
190
1329
687
1204
1154
970
318
216
1242
1655
1192
880
666
1107
536
257
30
668
1327
232
159
1630
388
1274
383
1255
727
870
266
881
793
101
13
1349
68
1205
1177
1401
883
71
1687
1716
571
1460
1086
804
852
527
632
499
1036
157
1726
764
1021
872
796
1434
1302
369
1396
1638
967
845
230
919
907
420
208
748
79
192
495
525
960
1089
147
1024
1397
320
830
1462
1189
1103
601
460
886
146
1560
1369
1236
770
848
1413
1502
1069
1003
597
1557
137
1277
83
1123
156
1207
1529
779
487
129
1244
1290
1020
406
152
349
416
1516
1525
1226
397
62
1611
210
500
355
95
631
576
37
488
966
145
1043
160
1105
557
1634
1439
522
1247
1056
238
1645
224
1526
348
122
593
1736
335
1676
195
237
183
1451
392
975
1166
675
1222
1615
334
620
1037
268
1688
550
1083
105
1278
1679
636
689
20
876
244
50
922
444
713
1336
1365
828
303
174
286
927
1605
347
308
1705
929
1534
169
424
227
12
1565
90
1376
1475
863
1477
1669
306
1345
1682
1735
493
74
519
566
181
109
118
295
1079
649
778
1438
1704
628
1411
412
642
1711
290
1538
340
1254
1646
1019
46
753
759
465
1535
1130
1404
427
327
670
353
450
1363
1048
1228
1624
760
140
454
705
1473
836
1110
957
1026
1357
399
1426
1350
1474
21
772
395
252
1521
1066
677
1714
1298
1188
1141
875
610
1193
1248
633
909
862
706
1266
715
1707
323
1385
1546
1478
630
1616
127
1018
1098
854
786
611
1718
1436
418
100
747
337
1419
1441
840
839
1603
946
1518
1631
1252
1245
646
104
821
1005
1082
1637
463
1053
590
1218
1234
501
708
378
982
1346
407
422
1414
1164
175
696
833
431
1283
1147
1540
724
284
1696
1128
1313
641
744
503
1106
1121
697
0
1181
933
1139
1367
1371
329
102
215
1167
858
248
1713
1403
1571
1307
1459
1233
368
250
742
26
842
1575
686
1333
1566
3
136
843
358
294
704
1055
1483
1581
372
1533
1724
1257
228
342
1685
609
457
63
997
239
656
114
1710
1446
582
128
1291
1015
1487
1380
857
700
139
1016
1407
7
506
860
954
637
936
1440
410
1695
360
155
346
307
1555
618
1563
282
1492
1684
1087
403
471
1241
508
539
1023
910
1387
555
1548
1334
1412
1138
952
165
339
59
1126
1625
1678
452
861
1359
1351
1551
440
1324
792
879
1602
825
1251
1013
591
1314
948
351
1423
1035
1171
466
1239
1168
1627
659
578
653
600
896
1640
1358
1308
1318
473
806
283
939
738
721
838
958
1152
