9503
4551
14451
14452
14453
14444
14445
14446
14447
14448
14449
14450
255
8325
7446
14235
13808
13809
13810
13811
13813
13734
13735
13736
13737
13738
13739
13740
13741
13742
13743
13744
13745
13746
13747
13748
13749
13750
13751
13752
13753
13754
13755
13756
13757
13758
13759
13814
13829
13819
13824
13825
13675
13676
13677
13678
13679
13680
13681
13682
13683
13684
13685
13686
13687
13688
13689
13690
13691
13692
13693
13694
13815
13816
13817
13818
13805
13820
13821
13822
13823
13806
13812
13826
13827
13828
13807
13830
5613
5614
8801
5633
10692
9255
1755
1756
1757
3349
5169
9740
9741
9742
9743
9744
9745
9746
9747
8980
8981
3935
3936
3937
3938
3939
3940
8185
8186
9728
9729
9730
9731
9732
9733
9734
9735
9736
9737
9738
9739
13696
3930
8647
8104
13776
3283
9436
9433
9434
9435
10583
10584
10585
10586
10587
8322
3692
3693
9494
12427
3597
3598
3599
3600
4033
4034
4035
4036
4037
4038
4039
4040
4051
4052
4053
4054
6263
6264
6265
6266
6267
6268
6269
6270
6271
3251
3245
3247
474
14136
14426
413
3323
1312
1774
4760
4761
13141
10948
1119
13148
14597
11421
10265
8594
2178
2119
2120
2132
2133
2177
10202
4958
11604
9850
10985
11570
2616
6293
6294
2565
2566
2567
2568
2569
2570
2571
2572
2573
2574
2575
2576
2577
2578
2588
2589
2590
2591
2592
2593
6696
6697
6698
6699
33
34
35
36
37
38
39
40
41
42
43
44
45
46
47
48
49
50
11012
2184
2185
2186
1775
1776
1777
1778
1779
1780
1781
1782
1783
1784
1785
1786
1787
1788
1789
1790
1791
1792
1793
788
789
790
791
792
793
1833
1834
1835
1837
1838
1839
1871
1872
1873
6700
11145
11146
6701
11147
11148
11149
11150
11151
11152
2450
2451
2452
2453
2454
2455
2456
2457
2458
2459
2460
2461
2462
2463
2464
2465
2466
2467
2468
2469
2470
2471
2472
2473
2474
2475
2476
2477
2478
2479
2480
2481
2482
2483
2484
2485
2486
2487
2488
1974
1975
1976
2489
2490
2491
2492
2493
2494
2495
2496
2497
2498
2499
2500
2501
2502
1997
1998
1999
2555
2556
2557
2558
2559
2560
2561
2562
2563
2564
417
7179
7180
7181
12826
12827
12828
12829
12830
12831
12834
12835
12836
12839
12840
12841
7614
7615
7616
7873
8643
8644
7874
7875
8645
10312
10313
10314
10436
10437
10438
8654
8655
8656
4841
4842
4843
8954
8955
8956
9725
9726
9727
9852
9853
9854
7908
12322
7905
12334
11209
10718
11251
13333
14303
248
7998
14774
14775
14776
14777
14778
14779
14780
14781
14782
14783
14784
14785
14786
14787
14788
9318
9319
140
8636
8634
8635
1818
1819
1820
12971
8109
11413
12965
12966
12967
12968
12969
12970
4549
12972
13371
3265
3362
3363
3364
3365
7944
7769
7770
7771
7772
7773
7774
7775
7777
7778
7779
7780
7781
7782
7783
7784
7785
5263
583
584
585
10615
10616
10617
10618
10619
10620
10621
1024
1025
1026
1027
9616
9617
9618
9619
9620
9621
9622
9623
1036
1037
1038
1039
1040
8989
8990
8991
8992
8993
9625
7605
7606
7607
7608
7609
11065
11066
11067
11068
8519
8520
8521
8522
8523
8533
8534
8535
10457
10458
10459
10460
10461
9624
1023
14396
1168
7852
14688
10853
10854
10852
1139
1140
1141
1142
1143
1144
1145
13522
13523
13516
13517
11354
3959
3960
3961
3962
4897
4898
4304
4305
4306
8110
8111
8112
7952
7953
8113
9041
11083
9294
9815
1714
1715
3160
7088
7089
3788
3789
3790
3791
3082
3083
3084
3085
9697
9698
9699
5122
10233
10234
1842
1843
1844
1845
1846
1847
1848
1849
1850
1851
1852
1853
11153
11154
11155
11156
11157
11158
9646
9647
9648
9649
9650
9651
5075
5076
5077
5078
5079
5080
9688
9689
9690
9691
9694
9695
9696
9692
9693
5087
5088
5089
5090
5091
5092
5093
5094
5095
5096
5097
5098
10223
10224
10225
10226
10227
10228
10229
10230
10231
10232
5111
5112
5113
5114
5115
5116
5117
5118
5119
5120
5121
3080
3081
4499
3596
6594
5025
8823
3174
8747
10694
10022
10023
10695
9272
10063
8379
1271
13481
6087
353
14168
11703
11704
11701
11702
3158
14059
14060
14061
14062
14671
11365
11366
11367
11368
11369
11370
11371
11372
9362
14266
9468
9476
9477
1916
1917
1918
3241
9100
9101
9102
10733
10734
10735
10736
9116
9117
9118
9119
9099
1217
1219
1125
1126
1127
1128
1129
1130
1131
1226
14687
1169
10917
3690
3691
673
14174
9946
8010
20
12394
12395
12387
12388
12389
12390
12391
12392
12393
10470
10471
10472
10473
10288
10289
10290
10291
10292
10293
10294
10295
9667
9668
9669
9670
9671
9672
9673
9674
7564
7565
7566
7567
14233
9297
4623
4624
4625
4626
4627
4628
4629
4630
4631
4632
4633
4634
4635
4636
4637
4638
8620
8621
8622
8623
3927
1921
1919
1920
7003
7004
7005
7006
7007
7008
7009
12293
5635
9588
11695
13041
386
387
388
389
390
13042
13038
13039
13040
11691
11692
11693
11694
11674
11675
11676
11677
11678
9026
4290
4291
4300
4301
4302
4567
4568
4569
4570
4571
8953
7682
11656
11657
11658
11659
11660
5019
3917
4918
4919
4920
4921
4922
4923
4924
4925
4926
7808
7809
7810
7811
7812
7813
7814
7815
7816
5923
10908
10907
5922
5259
5260
5261
5262
5233
5234
5235
5236
5237
5243
5244
5245
5246
5247
5248
5249
5250
5251
5252
5253
5254
5255
5256
5257
5258
165
4750
4751
4752
10170
10171
10172
10173
10174
10175
10176
836
1498
1499
13573
13574
13575
13576
13577
13717
6548
6549
6550
6551
6552
6553
6554
6555
6556
6557
6558
6559
6560
6561
6562
6563
6564
6565
6566
6567
3771
3772
3773
9657
14260
9298
8756
8757
8758
8759
8760
8761
8762
8763
8764
8765
7885
13240
2854
2855
2856
2857
2858
4657
4658
4659
4660
4661
2371
2372
2373
2374
2375
2424
2425
2426
2427
2428
2429
2430
2431
2432
2433
6795
6796
6797
6798
6799
6800
6801
6802
6803
6804
6805
6806
6807
6808
6809
6810
6811
6812
6813
6814
6815
12803
3894
3895
9191
9192
9193
9194
9195
3230
3231
5561
8397
8398
13070
11777
6119
6120
3429
3837
12295
12296
12297
12298
12299
12300
14269
11175
11174
14659
11593
11809
11810
3969
3970
3971
3972
3973
9269
14454
13367
9430
10839
13470
10562
9480
7895
14500
4654
4655
4656
12315
13409
5212
4643
4644
4645
4647
4648
4650
11896
11897
11898
11899
7238
7239
7240
7241
1320
1321
6708
6709
6710
12022
12023
12024
6729
14542
772
4608
4609
7447
7448
7449
7450
7451
7452
7453
7454
7455
7456
7457
7458
7459
7460
7461
7462
7463
7464
7465
7466
7467
7468
7469
7470
7471
7472
7473
7474
7475
7476
7477
7478
7479
7480
7481
7482
7483
7484
7485
7486
8783
8784
8785
8786
8807
8808
8809
8810
2645
2247
2644
1007
235
236
237
238
239
240
241
242
243
244
13436
990
14298
347
8772
404
5188
12304
12302
12303
10950
8562
3378
3326
14025
3073
3074
8748
13059
14728
10235
7246
7248
7247
7242
7243
7244
7245
7226
7227
7228
7229
7230
7231
7232
7233
7234
7235
7236
7237
6470
6471
6472
6473
6474
6475
6476
6477
6478
6479
6480
6481
6482
6483
6484
6485
6742
6743
6744
6745
6746
6747
6748
6749
7249
7250
3570
3571
3572
3573
7027
7028
7029
7030
11907
11908
11909
11910
11911
2130
2131
9631
11261
8891
8892
8893
13291
13292
14553
14623
1414
2702
2703
1419
1420
1421
1422
1423
1424
1425
1426
1427
1428
532
1429
1430
1431
1432
1433
1434
1435
1436
3747
815
11931
5182
2618
4947
1229
462
1233
1234
1235
6750
4455
4456
5359
11258
11259
11260
632
383
5024
10380
10488
10489
10490
10491
10492
10493
10375
10376
10377
10378
10379
11575
12891
12892
12893
12894
12895
12896
12897
12898
12899
12900
12901
12902
12903
12904
12905
5507
5508
5509
5141
1261
14432
8722
8723
8724
8725
8726
8727
8728
8729
8730
8731
10424
10425
10426
10427
10428
10429
10430
10431
10432
10433
10344
10345
10346
10347
10348
10349
10350
10351
10352
10353
896
11605
3738
12229
12230
12231
12232
12233
12234
12235
12236
12237
438
6539
6540
6541
6542
6543
6544
6545
6546
6547
3759
3760
3761
6532
6533
6534
6535
6536
6537
6538
1470
1472
3452
3453
14628
3120
7788
13369
13370
14685
9823
9824
9825
9826
9827
9828
9829
9830
14692
3545
3546
3547
3548
3549
3550
3551
3552
3553
3554
1695
3156
4602
4603
4604
10236
11459
11460
6513
6514
3569
3794
3795
3796
3797
3798
3799
3800
9571
9077
11707
11708
10565
3387
1754
1861
1056
5201
5202
5203
5204
5205
5206
8778
8779
5215
5216
5217
14641
14639
14640
8777
1054
1055
14385
7326
3152
9548
9549
9550
9551
9552
9553
9554
9555
9556
9557
9558
9559
9560
9561
9562
4307
3473
7413
7414
10748
10749
14568
14569
11912
11913
3524
3525
3526
3527
3528
3529
1064
12752
12753
12754
12740
12741
12742
12743
12744
12745
12746
12747
12748
12749
12750
12751
9682
9683
9684
9685
9686
9687
11887
11888
11889
11890
11891
11892
11893
11894
11895
10552
10250
4829
6150
10954
12511
12512
12513
12514
12515
12516
12517
12518
12519
12520
12521
8452
1931
5680
3632
3633
3634
5681
5682
5683
5684
5685
5686
5687
5688
5689
5690
5691
4927
4928
4929
8250
8251
8252
8253
8254
8255
8256
8257
3803
3804
3805
6245
6246
6247
6248
6249
6250
6251
9251
1012
93
6048
14139
14138
6584
1763
6311
1865
1866
1867
1868
9277
159
2310
179
12205
12206
8558
7051
5100
11375
11376
11377
11378
11379
11380
11381
11382
11373
11374
4952
4953
4954
4860
4861
4862
14686
3380
2261
2259
2260
418
3
4
1869
10683
4094
4863
4864
4095
4096
4865
7308
14465
4273
4274
4275
4276
4277
4278
4279
4280
125
1709
9452
905
14153
14154
14155
14156
9449
11472
1122
3694
14680
5835
5836
5837
5828
5829
5830
5831
5832
5833
5834
741
742
743
744
13278
13279
13280
13281
13079
13080
13081
13082
11432
11433
11434
11435
13439
13491
7059
5173
4825
5074
13100
10330
751
2215
351
6051
6052
6053
6054
6379
6380
6381
6382
6383
6384
6385
14620
14621
2010
2014
11416
11417
11418
13646
13037
13557
13558
7859
8886
8887
4281
4288
3756
3757
3758
14617
12361
9983
14299
1494
8972
8973
8974
8975
8976
8977
8978
8979
8964
8965
8966
8967
8968
8969
8970
8971
11003
11004
14092
14093
11867
11868
8469
5987
5988
5989
5990
5991
5992
5993
5994
5995
5996
5997
5998
5999
6000
6001
6002
6003
6004
6005
6006
6007
6008
6009
6010
6011
6012
6013
6014
6015
6016
6017
6018
6019
6020
6021
6022
13397
7826
9861
10687
7903
5187
3740
3741
3743
3744
8555
9724
9471
9615
1407
14296
13770
9975
9054
979
980
981
982
983
984
985
986
987
988
989
8846
8847
7183
7184
1415
7185
7186
3603
3604
7187
7188
7189
7190
3609
8851
2848
2849
2850
2851
2852
2853
13617
809
810
8848
8849
8850
564
565
566
567
3175
3176
3177
3178
3179
3180
12140
12141
12142
12143
12144
12145
12146
12147
12148
12149
14073
14074
14075
14532
4171
4164
4165
4166
4167
4168
4169
4170
1093
3542
3543
3544
3590
3591
3592
11610
11611
11612
11613
11614
3263
1710
2617
9455
4415
4416
4417
4418
4419
9444
9445
9446
9447
9296
11062
11063
8546
345
5707
5708
5709
5710
5711
5712
5713
5714
5715
5701
5702
5703
5704
5705
5706
9103
9104
9105
10726
10727
10728
6890
6891
6892
6893
6894
6895
6896
6897
6898
6899
6900
6901
6902
6903
6904
6905
6906
6907
6908
6909
6910
1277
14087
3267
14072
13722
6443
6444
14325
14326
14327
14328
14329
14330
6439
6440
6441
6442
773
996
997
998
999
1000
8118
8119
8120
8121
8122
10913
11769
8007
8393
9359
9360
1665
1602
1603
1604
1605
1606
1607
1666
1667
1668
1669
1670
1671
1662
1663
1664
4859
4856
4857
4858
5291
5292
5289
5290
9599
10354
13585
13586
13587
2216
2217
2218
2219
2220
13583
13584
13621
13622
13049
13050
13054
13055
11422
11423
11427
11428
13672
13673
10019
4949
12938
12936
12937
752
753
754
755
756
757
758
759
760
761
762
763
12935
2600
3354
3355
3356
3357
4700
4701
4702
800
13448
13401
7870
1269
5503
10434
10435
13447
13450
13449
3881
10920
14265
2090
2091
2092
2093
2094
2095
2516
2517
2518
2519
2520
2521
11117
11118
11119
11120
11121
1892
1893
1894
1895
1896
1897
11122
9378
3338
3339
3336
3337
4900
3097
14483
14484
8604
8605
8606
8607
8608
10274
10275
10276
10277
10278
11236
11237
11238
11239
11240
11781
11782
11783
11784
11785
14480
14481
14482
13140
9541
2057
12808
12809
12810
12811
9974
14237
1041
1301
5195
5196
10480
9843
9845
9661
9665
10370
10820
10372
10410
10504
5193
5194
898
11473
11475
11477
343
3722
3723
3718
3719
10679
9238
2780
12462
3203
3204
3205
3206
1032
7970
903
3273
4500
4501
4502
4503
4504
4505
4506
4507
4508
11363
11364
14605
2309
8592
13562
13563
10263
11419
13564
13565
13566
11922
11923
11924
11925
11926
11927
11928
11929
11930
5101
5102
5103
5104
5105
5106
5107
5108
5109
5110
6486
6487
6488
6489
6490
6491
6492
6493
6494
6495
6496
610
611
612
613
614
615
616
8207
8208
8209
8210
8211
8212
11542
11543
11544
11545
11546
11547
11548
5972
9868
544
545
8463
12659
8465
8466
1262
1263
7131
7133
7135
11748
7137
396
397
398
399
400
2199
2200
2201
2202
2203
2204
2205
2206
2207
2208
2209
2210
2211
2212
2213
11696
11697
11698
11699
11700
13043
13044
13045
13046
13047
1660
419
1692
183
14157
12790
3849
9395
9396
9397
9398
9399
9400
9401
9402
9403
9404
9405
9406
9407
9408
9409
13104
307
10925
10926
10927
10928
10929
10930
10923
10924
13109
10440
1207
1208
1209
1210
1211
1212
1213
1214
1215
9921
14394
3882
714
715
716
717
718
719
720
721
7879
9219
14331
14332
14333
14334
14335
14336
2730
2731
2726
2727
225
226
8578
1795
2360
2361
2362
2363
2364
2365
2366
2367
423
5771
5772
5751
5752
5753
5754
5755
5756
5757
5758
5759
5760
5761
5762
5763
5764
5765
5766
5767
5768
5769
5770
3159
12736
12737
12734
12735
14590
1687
233
8279
13282
5886
11746
8072
8073
8074
8075
5379
6791
4448
4449
4450
4451
4452
4453
4454
13283
13284
13285
13286
1062
13139
152
149
150
151
11609
11588
184
2876
2877
2878
2879
2880
2881
2882
2883
2884
2885
12536
12535
11904
14722
4606
4607
3431
3432
13206
14600
7647
1713
1712
2437
2435
12475
229
230
8003
2082
2083
2080
2081
420
8076
8077
8078
8079
8080
8081
13228
6619
6620
6617
6618
3489
1747
133
9519
5731
5732
5733
5734
5735
5736
5737
5738
5739
5740
5741
5742
5743
5744
5745
5746
5747
5748
5749
5750
8577
6647
6648
6649
3892
3893
3296
3297
3298
3299
3300
3301
3302
3303
11254
8456
1765
7372
1237
8132
9832
9834
5344
13834
580
581
582
13078
10557
11813
1402
11430
437
8603
9627
7251
7252
7416
7417
4983
10918
1220
13233
13234
13230
13231
13232
10838
10563
14278
11408
11409
11410
11411
11412
9919
14392
8781
3149
14683
11576
11577
11578
11579
11580
4826
4827
10366
9988
9989
9990
9991
9992
9993
9994
9995
7224
7225
10449
403
1049
1764
3774
3775
3776
749
12211
12212
12215
12216
8938
8939
7256
7257
7258
7259
7260
7261
7262
14711
14712
14713
14714
14715
14716
14717
14718
14719
1387
12289
1123
10937
10816
10817
14158
7897
12458
4006
4007
640
641
642
643
644
645
646
647
648
649
650
651
652
653
654
655
656
657
658
659
660
661
662
663
664
665
639
329
9071
832
833
13358
13359
7735
7736
7737
14757
5346
3379
3611
11089
1581
1582
1583
1584
13895
13896
10559
10558
19
14401
14402
8213
3724
444
10664
2711
304
305
302
303
7569
7570
7571
7572
7573
7574
7575
7576
7577
7578
7579
7580
7581
7582
12626
12627
12628
12629
12630
12631
12632
13568
13569
13570
13571
13572
10281
10622
10686
10921
3568
10911
8328
13009
13010
13011
13012
13003
13004
13005
13006
13007
13008
1077
14472
1739
14593
10203
4172
3601
337
5473
11294
6674
6675
1642
1643
1644
6676
164
7499
7500
7501
7498
1313
10886
822
3851
2221
13567
10682
9523
9524
9525
9526
9527
9528
9529
9530
9531
9532
9533
9534
9535
9536
9537
9538
9539
9540
2086
2087
7739
7604
4109
4903
9835
7017
6570
1475
5912
14086
7174
1932
2715
12945
12946
12947
12948
12949
12950
12951
12952
12953
12944
1231
463
10358
443
13083
2793
2794
2795
2796
2792
451
3020
7896
90
5175
5176
8794
14434
14456
3117
5209
12228
5549
5550
5551
5552
5553
5554
11586
13541
7680
8881
9372
8940
8941
12209
4846
4847
12210
12213
12214
3518
3519
3520
3521
3522
3523
9547
3471
10510
10511
3389
3391
5699
5700
5697
5698
15
16
17
14513
14514
14515
5170
5171
5172
8639
8640
8641
10309
10310
10311
10712
10713
10714
11242
11243
11244
13314
13315
13316
13699
13700
13701
14132
14133
4605
11461
3434
14631
3442
3441
1537
1538
1539
1540
1541
1542
1543
1544
1545
1546
1547
1548
1530
1531
1532
1533
1534
1535
1536
11471
391
392
393
394
395
12959
12960
12961
12962
12963
11467
11468
11469
11470
12832
12833
12837
12838
7877
7878
5595
5596
5593
5594
3249
9876
12794
1741
9317
13484
5131
5132
5133
5134
516
517
518
519
520
521
522
523
524
525
526
5135
5125
5126
5127
5128
5129
5130
1147
1148
1149
8774
10417
9278
9279
9280
9281
2862
2863
2736
2737
2738
2739
2740
2741
2864
2865
2866
2867
2908
2909
2910
2911
2912
2913
8551
8552
9223
3086
3087
12885
12886
10355
10356
12800
12801
8460
11233
14405
1030
14555
14556
14557
14558
14559
14560
14561
14562
14563
14564
14565
13900
14380
1476
1477
132
4877
12428
1732
1733
14195
14196
14197
14198
14199
14200
14201
14202
14203
14204
14193
14194
12430
8127
10364
12578
12579
12580
12581
12582
12135
9800
9801
4203
4204
4205
4055
4056
4057
4058
4059
4060
4061
4062
4063
4197
4198
4199
4200
4201
4202
10361
9273
2250
2252
1390
3220
14663
14664
14665
6702
6703
6704
445
446
12793
7122
13051
671
9292
9516
14697
7199
7200
6692
6693
6694
572
6695
571
1281
1280
3252
9564
1404
1737
1738
10357
3115
489
490
491
492
1863
1864
3089
7359
7360
54
55
7361
10149
10150
10151
10152
10153
1855
1856
6194
7548
7549
7550
7551
2370
12993
12994
12995
12996
12997
12998
12999
13000
13001
13002
9877
9878
9879
9880
9881
9882
9883
11519
11520
11521
11522
11523
11524
11525
11526
11527
11528
11529
11530
11531
11532
10015
11721
14373
13269
3077
3078
10970
10971
10972
10973
10974
10975
10976
4965
4966
14205
14206
14207
14208
14209
14210
14211
14212
14213
14214
14215
14216
10257
10258
11088
781
1314
14262
12723
14439
14135
2767
11853
11865
11812
9522
11886
7971
10888
11211
9244
14078
3762
3763
3764
6792
9228
9229
13837
13838
13839
13840
9227
10647
10400
10650
13097
11458
108
12097
12098
12099
12100
12101
12102
12103
12104
4461
3853
4462
4463
4464
4090
4091
4092
4093
1524
1525
1526
1527
1528
1529
10283
5969
5970
3733
203
204
205
206
207
208
3195
301
6789
2278
2771
2772
2773
2774
2775
2776
2777
2778
2779
1185
1186
1187
1188
1189
11056
11057
11058
11059
11060
1175
1176
1177
1178
1179
2254
1170
1171
1172
1173
1174
1180
1181
1182
1183
904
9448
12056
12057
1001
334
9591
5421
5422
5423
5424
5425
5426
5427
5428
3242
10284
10285
10286
10287
688
689
690
691
10466
10467
10468
10469
6121
6122
6123
6124
6125
6126
6127
6128
6129
6130
6131
6132
6133
6134
6135
6136
6137
6138
6139
6140
6141
6142
6143
6144
7175
7176
7177
7178
1841
5051
5052
5053
5054
5055
1124
7019
192
193
194
195
7503
7504
7505
7506
1986
1987
1988
1989
1990
3062
3063
3072
3161
8609
8610
8611
8612
8613
8614
9306
7703
7704
7705
7706
7707
7708
2769
2766
4047
4299
4298
11024
11025
11026
11027
10729
10732
10730
9112
9113
9114
9115
9095
9096
9097
9098
10731
1661
12528
12529
12530
12531
12532
12522
12523
12524
12525
12526
12527
13553
13554
13555
13556
13543
13544
13545
13546
13547
13548
13549
13550
13551
13552
1311
13618
9236
14592
7419
11171
11172
507
9215
3486
3487
3488
9216
9217
9218
4360
2376
2377
2378
2379
2380
2381
2382
2383
2384
2385
2386
2387
2388
2389
2390
2391
2392
2393
2394
2395
2396
2397
2398
2399
2400
2401
2402
2403
2404
2405
2406
2407
2408
2409
2410
2411
2412
2413
2414
2415
2416
2417
2418
2419
2420
2421
2422
2423
13452
8409
8410
8411
8412
8413
8414
8415
8416
8417
8418
8419
8420
8421
8422
8423
8424
8425
8426
8427
8428
8429
8430
12678
10079
10080
10081
10082
10083
10084
10085
10086
10087
10088
10089
10090
10091
10092
10093
10094
10095
10096
12661
10097
12662
12663
12664
12666
12665
12667
12668
12669
12671
12670
12672
12673
12674
12676
12675
12677
12679
12680
12681
12682
12683
12684
12685
12686
12687
12688
12689
12690
12691
12692
12693
12694
12695
12696
12697
12698
12699
12700
12701
12702
12703
12704
12705
12706
12707
12708
12709
12710
12711
12712
12713
12714
12715
12716
12717
12718
12719
13341
13342
5469
14466
3595
6582
3199
3200
3201
3202
8912
10717
14694
11208
11246
14007
11159
11160
11161
11162
11163
11164
11165
11104
11105
11106
11107
11108
11109
11110
2807
2808
2809
2810
2811
2812
2813
2814
2815
2816
1744
1549
1550
1551
1552
13424
14191
6763
6764
6766
6761
6762
2264
2265
11581
14425
12185
12186
12165
14540
12072
4875
10579
10580
10581
10582
6235
6236
6237
6238
4872
4873
4874
10894
14365
338
11608
1324
1325
1326
1327
1328
1329
1330
1338
1339
1340
1341
1342
1343
1344
1352
1353
1354
1355
1356
1357
1358
9300
1366
1367
1368
1369
1370
1371
1372
1373
1374
1375
1376
1377
1378
1379
1081
1082
1083
1084
1085
1086
2602
2603
2604
2605
2606
2607
2608
2609
2610
12574
12575
12576
12577
2129
8564
1043
14428
14300
3017
3018
3019
3011
3012
3013
3014
3015
3016
13189
13188
13173
13190
92
4959
4960
4961
4869
4870
4871
5199
13897
13372
8579
10399
10648
10649
1832
7053
10825
10826
10827
10828
12424
5818
5819
5820
5821
5822
5823
5824
5825
5826
5827
11383
11384
11385
11386
11387
11388
11389
11390
11391
11392
11393
11394
11395
11396
11397
11398
11399
11400
11401
5634
306
8288
5920
10906
1749
1750
1751
1752
1753
11620
2146
2147
2148
2149
2150
2151
2152
2153
1940
1941
1942
1943
1944
1945
2145
9106
9107
9108
9109
9110
9111
12873
12874
12875
12876
12877
12878
12879
12880
9086
9087
9088
9089
9090
9091
9092
9093
9094
7947
7851
14660
1200
10254
3567
2705
7618
14455
14473
11567
8796
11649
10368
1146
4717
4718
4719
4720
4721
4722
4723
4724
4725
4726
4727
4728
5081
5082
5083
5084
5085
5086
6590
12620
12621
12622
9287
8287
8259
2334
1222
11439
11440
11441
11442
11443
11444
11445
11446
11447
11448
11449
4534
4535
4536
4537
4538
4539
4540
4541
4542
4543
11451
11452
11453
11454
11455
11456
11457
11450
6751
6752
6753
6754
6755
6756
6757
6758
6759
11476
14433
897
14419
14420
14421
14422
14410
14411
14412
14413
14414
14415
14416
14417
14418
10332
10367
11556
11559
11561
11563
11565
839
6519
6520
6521
6522
6523
6524
6525
6526
6527
6528
6529
1685
3658
3659
3660
3661
3662
3663
3664
3665
3666
3667
3668
3669
3670
3671
3672
3673
3674
3675
1006
14291
14292
14293
14294
14295
14290
14275
5582
5583
5136
5137
5138
5139
5584
5585
12461
1601
1593
1594
1595
1596
1597
1598
1599
1600
1260
3150
9212
9213
9214
9211
9652
1227
13205
3386
5214
14624
14625
3898
189
1680
3254
5524
7787
10446
411
811
812
14740
14741
14742
14743
14744
14745
14738
14739
11601
14629
14720
256
7995
9289
7702
1808
10875
10876
10986
1858
57
7032
2629
7014
7015
2627
2620
2621
2622
2623
2624
2625
2626
638
2628
2747
11082
14544
14545
14546
14547
7740
7741
3262
10359
1746
12784
12771
12772
12773
12774
12775
12776
12777
12778
12779
12780
12781
12782
12783
1875
11838
14270
13306
13307
13308
13309
13310
13311
13312
13313
3370
10561
2255
3439
3440
6816
6817
6818
6819
6820
6821
6822
6823
6824
6825
6826
6827
6828
6829
6830
6831
6832
6833
6834
11286
11287
11288
10006
10007
10008
10009
10010
10011
10012
11289
11290
11291
11292
10951
626
627
10952
14567
7936
10932
13987
9984
3366
3367
3368
3369
10018
9431
12645
12646
12647
5070
14772
9597
9920
14393
4113
3114
3196
3197
3198
3112
3113
348
1505
1500
1501
1502
1503
1504
136
1108
1109
7907
12321
12333
7904
12567
12568
12569
8637
8638
9075
9076
12537
12538
12539
12540
12541
12542
12543
12544
12545
12546
12547
12548
12549
12550
12551
12552
3184
9453
10262
14438
10261
13524
2581
2582
2579
2580
12656
12648
12649
12650
12651
12652
12653
12654
12655
12657
12406
12407
12409
12410
12416
12417
12418
12419
3608
4235
4236
4227
4228
4229
4230
4231
4232
4233
4234
10264
8593
11420
3314
14632
1497
10628
10627
10893
9
8117
11837
11716
14347
4786
473
75
13425
13426
13427
13428
13429
13332
12178
13338
11078
12138
14276
9676
9677
9678
9679
9680
9681
202
12047
12048
12049
12050
12051
12045
12046
12453
2341
2342
2343
2344
2340
6576
13242
13243
13204
1069
14471
9945
10442
3956
6255
1677
1150
14236
7310
2311
2312
2313
2314
2315
2316
2317
2318
2319
2320
2321
2322
2323
2324
2325
2326
2327
2328
2329
2330
2331
6299
6300
6301
1050
6302
6303
6304
6305
13893
12123
2642
12124
12125
12126
12127
12128
2648
12129
12130
12131
12132
12133
12134
9276
7955
7956
8123
8124
8125
8126
172
10448
7547
13057
8289
5921
4930
13901
7011
12456
7115
7116
7117
7118
7963
7964
468
469
470
471
472
1310
14134
11641
1061
14037
4050
9018
11934
9020
9021
9019
11935
11936
11937
13121
1729
1730
1731
1722
1686
1719
1720
1721
1718
1723
1724
1725
1726
1727
1728
14442
1405
1406
11932
12791
8336
8337
8338
8339
8340
8341
13073
13074
13075
13076
13077
8595
8596
8597
8598
8599
8600
8601
10266
10267
10268
10269
10270
10271
10272
12907
12908
12909
12910
12911
12912
12913
13071
13072
196
197
198
199
8048
10756
14219
14220
14221
14222
14223
14224
14225
14226
8752
8753
8894
8895
14088
7563
7560
7561
7562
9369
13394
9598
10919
1221
11642
722
12888
188
3183
3385
3466
3467
3454
3455
3456
3457
3458
3459
3460
3461
3462
3463
3464
3465
2671
2672
2673
2674
2675
2676
2677
2678
2679
2680
3288
3289
3290
3291
3292
3293
3274
11690
7951
670
1152
1153
1154
1155
1156
1157
1151
5808
5809
5810
5811
5812
5813
5814
5815
5816
5817
5547
5548
11585
5543
5544
5545
5546
11903
11900
11901
11902
11029
8983
8984
8985
8986
8987
8457
14264
460
461
1292
13203
13718
9271
13984
13985
5908
5211
5210
11600
9301
14113
1028
1029
5677
5678
675
676
5679
11729
11730
11731
8247
8248
8249
14502
14503
14504
14505
14506
14507
14508
14509
14510
14511
14512
14541
10644
10645
10646
8161
12400
12401
12402
4852
4853
4854
4855
12412
12413
12414
12415
12398
12399
2713
2597
2598
2594
2595
2596
14035
10922
9976
10329
2643
11568
10896
10897
10898
10899
10900
10901
10902
10903
5142
5143
5144
5145
5146
5147
5148
5149
5150
5151
10904
10905
8268
8269
8270
8271
8272
8273
8274
8275
8276
8277
5868
5869
5870
5871
5872
5873
5874
5875
5876
5877
978
2539
2540
2541
2542
2543
13329
11185
11186
11187
11188
11189
4021
4022
4023
4024
4025
4026
4027
4028
4029
4030
4031
4032
455
456
11249
11250
13323
13324
13325
13326
13327
13328
1121
10982
10980
13331
4946
7786
14091
14090
14363
10880
10881
10882
4823
13650
13651
13652
13653
13647
13648
13649
11414
11415
13644
13645
13035
13036
11210
7967
902
13393
13411
13412
10958
6160
6161
6162
6163
6164
6165
6166
6167
6168
10938
10462
10219
9282
14554
13245
3090
10663
457
458
503
10866
10867
10868
10869
9124
9123
504
505
506
5419
5420
5403
5404
5405
5406
5407
5408
5409
5410
5411
5412
5413
5414
5415
5416
5417
5418
8751
10821
4589
4590
4591
6998
7831
7000
7001
7002
7832
7833
7834
7835
7836
7837
7838
7839
4586
884
4781
8755
7898
7899
7900
7901
7902
8957
8958
8959
8960
8961
889
890
891
892
893
4902
13714
13715
13716
14238
14239
14240
14241
14242
13712
13713
11592
13619
13620
13048
13052
13053
11424
11425
11426
13670
13671
11087
10195
10196
10197
10198
10199
10200
10201
11076
8539
8540
8541
8545
11074
11075
9067
3957
1315
1758
2646
2636
14257
13368
1067
7495
11589
9469
9723
13138
10296
10297
10298
10299
10300
10301
10302
10303
10304
10305
10306
10307
10308
14721
10572
10573
10574
10575
10576
10577
10566
10567
10568
10569
10570
10571
4191
4192
4193
4194
4195
4196
11255
14673
14010
7145
6992
6993
10933
11140
13257
13334
13335
13256
2886
907
12429
8163
8164
8165
8166
8167
3801
3613
3614
3615
3616
3617
3618
9817
3725
3726
3727
3728
3729
3730
3731
3732
369
370
371
372
373
3857
3858
3859
3860
3861
3862
3863
3864
3865
3866
3867
12139
5361
5362
5363
5364
5365
5366
5367
5368
5369
5370
5371
8836
8837
8838
8839
8840
8841
4292
4293
4294
4295
4296
4297
3394
12789
257
258
259
260
261
262
263
264
265
266
267
268
269
9355
14313
14314
14315
14316
14317
14318
13103
9851
13989
9356
9802
9388
9803
12431
7729
7730
7731
7732
7733
7734
4676
4677
4678
4679
4680
9590
4331
4332
3475
3476
4323
4324
4325
4326
4327
4328
4329
4330
14254
10813
414
3407
11028
3276
3612
9600
7600
1282
1283
2058
2059
2060
2061
2062
2063
2064
2065
2066
2067
2068
2069
2070
2071
2072
2073
2074
2075
2076
13719
344
10981
11938
8735
14536
8266
2714
9595
7121
12929
2845
9675
13353
13350
13351
13352
3946
3947
3948
3949
3950
3951
3952
3941
3942
3943
3944
3945
14058
14021
14022
14023
14024
118
14038
3626
3627
3628
3629
3630
3625
5045
5046
5047
4221
4222
4223
4224
4225
4226
10996
10997
10998
10999
11000
11001
11002
3450
3451
3449
5630
5631
9872
3266
13137
7012
13833
8198
14596
6155
1033
1034
1035
51
4545
4547
8517
8518
4548
59
60
61
6239
6240
6241
6242
6243
8548
8549
8553
8554
10218
8556
8557
10992
10993
9073
8445
141
341
2630
13129
13127
13128
13835
12459
3681
10643
4363
4364
4365
4366
4367
4368
4369
10385
10386
10387
10388
10389
10390
10391
10392
10393
4361
4362
5617
5618
5619
5620
5621
5622
5623
5624
5625
5626
5627
10703
11
5913
5914
5915
5916
5917
9153
9154
9155
9156
9157
10995
6646
405
14377
10222
2924
14409
1769
3171
3172
3170
5910
11717
14571
8884
7860
14534
14261
1767
14145
713
13430
13431
13432
13433
13434
13435
2002
8559
2000
2001
14258
2168
11177
1473
1471
14487
9361
9722
2077
2078
1697
12787
12788
4387
4388
3506
3507
3508
5504
5505
3777
3778
3779
4386
5506
10662
10872
14019
14016
14017
14018
6760
6573
7723
7724
7725
14527
14528
14529
10753
10752
10273
13201
13202
13191
13192
13193
13194
13195
13196
13197
13198
13199
13200
10004
10005
14382
14383
8129
8130
11722
11723
11724
11725
11726
8149
8150
3931
3932
3933
3934
9985
9986
10116
10117
10118
10119
10120
10121
10122
10123
3151
11178
5934
11230
309
13287
8290
3322
4955
4956
4957
4866
4867
4868
14469
131
13060
834
835
8739
8740
10987
10988
2282
2283
2284
2285
2286
2287
2288
2289
2290
2291
2292
3031
3032
3033
3034
3035
9245
14077
9201
9202
9203
9204
9205
9206
5867
5864
5865
5866
10253
1112
1110
1111
2619
1512
1513
1514
1515
1516
1517
8617
8619
7620
7621
7622
7623
7624
7625
7626
7627
7628
7629
7630
7631
7632
7633
7634
7635
7636
7637
7638
7639
7640
7641
7642
7643
7644
7645
7646
2925
2926
2927
2928
2929
2930
7893
4587
4588
6994
6995
6996
6997
6999
3980
3981
3982
13988
9479
7528
11355
11356
11357
11358
11359
11360
11361
11362
7307
7309
7311
7312
7313
7314
7315
7316
7317
7318
7319
4904
2859
3286
2781
2650
2651
2652
2653
2914
2654
2655
2656
2657
2658
2659
2660
2663
2664
2665
2666
2667
10363
1930
5071
5072
10983
14006
11535
11536
11537
11538
11539
11540
9891
9892
9893
9894
9895
9896
11533
11534
3712
3381
5848
5849
5850
5851
5852
5853
5854
5855
5856
5857
6084
6085
6086
687
2194
2193
2438
2439
2440
2441
2442
2443
2444
2445
2446
2447
2448
2449
454
3602
13246
13247
4878
4879
4880
4881
4882
4883
4884
4885
4886
4887
4888
4889
9176
9177
9178
9179
9180
9181
9182
9183
9184
9185
9186
9187
2931
2932
2933
2934
2935
2936
2937
2938
2939
2940
2941
2942
2943
4403
4404
4405
4406
4407
4408
4409
2163
2164
7165
11478
11479
11480
11481
11482
11483
11484
11485
11486
11487
14519
14520
14521
14522
9634
11034
9308
3182
5340
2735
14366
7496
10326
704
697
698
699
700
701
702
703
180
3846
3847
3848
439
2719
2720
2721
2722
2723
2724
2725
12795
12796
12797
12798
12799
9574
9575
9576
9577
9578
8716
8713
8717
8718
8719
8714
8715
8708
8695
8709
8696
8697
8698
8699
8700
8710
8712
8711
8707
1628
1629
1630
1631
1632
1633
1634
1635
1636
1637
1638
1639
1640
1641
8692
8693
8694
1645
1646
1647
1648
1649
1650
1651
1652
1653
1654
1655
1656
1657
1658
8701
8702
8703
8704
8705
8706
1295
3384
104
105
14430
14431
2599
14463
10724
1388
272
273
270
271
4395
4396
4397
4398
4399
4392
4393
4394
13992
3416
3417
3418
3419
3420
3421
3422
3423
3424
3425
3426
3427
3428
9302
6531
14166
3682
2668
8885
1316
4683
4684
4685
4681
4682
10805
10806
10807
10808
10809
10810
10811
10812
5556
5557
5558
5559
14601
6187
6188
6189
6190
6191
6192
9717
10969
6184
6185
6186
11142
9268
14375
2768
6043
6044
6045
6046
6047
3839
3840
3841
3842
10912
11654
10684
12642
12643
12644
4791
4793
4795
4797
4799
4801
4803
14368
14369
2011
2012
2013
4173
3189
8468
3631
3088
14644
14645
14646
14647
14648
14649
14650
14651
2649
8106
5918
13492
13493
13494
13495
452
453
176
177
174
175
13142
12964
3641
3642
3643
3644
3645
3646
3647
3648
3649
3650
3651
3652
3653
3654
1926
7743
10325
747
885
12305
12306
12307
12308
12309
12310
12311
275
12
9169
4410
4411
4412
4413
4414
7599
9363
9364
9366
9367
8443
10111
5056
5057
5058
5059
5060
7555
7552
7553
7554
13490
8915
13506
13507
13508
13509
13510
13511
8100
6378
14516
14517
14518
4132
2350
9592
3321
10797
10798
10799
10800
10801
10802
10803
10804
10789
10790
10791
10792
10793
10794
10795
10796
8844
1381
14339
9473
9474
9544
11182
9543
828
8843
8560
8561
5360
13130
13131
13132
13133
10328
12256
12257
12258
12259
12260
12261
12262
12270
12271
12272
12273
12274
12275
12276
12277
12278
12279
12280
12281
12282
12283
12217
1304
1249
1250
1251
1252
1253
1254
1255
1256
1257
1248
5238
5239
5240
5241
5242
13361
13362
13363
13364
13365
13366
13360
3433
1096
1097
1098
1099
1100
109
110
111
112
113
114
1101
1954
1955
1956
1957
1958
7648
807
7881
14488
736
737
738
739
740
735
3958
14141
5275
5276
5277
5278
8002
13611
13615
143
11031
6347
6348
6349
6350
6351
6342
6343
6344
6345
6346
7709
7710
7711
7712
7713
7714
778
779
8792
8381
11232
1013
135
3377
406
13831
9066
5515
5516
5517
5518
7911
10864
5523
10850
7937
10851
7910
5511
5512
5513
5514
8454
401
3705
3706
9437
5183
5184
5185
10369
10754
122
14543
2825
2826
2827
2828
2829
2830
2831
2787
2788
2789
2790
2791
2797
2798
2799
2800
2801
2802
2803
2804
2805
2806
2817
2818
2819
2820
2821
2822
2823
2824
14661
186
12983
12984
12985
12986
12987
12988
12989
12990
12991
12992
8172
8168
8169
8170
8171
12728
12729
12726
12727
11096
11097
11098
11100
11101
11103
5615
5616
9242
11672
11673
11814
11815
11816
11831
11832
11833
13887
11854
11855
11856
11857
11858
11859
11621
11622
7040
7041
7042
9072
11037
11038
11039
11040
7497
9941
9942
11758
103
2253
9190
9303
513
13415
5200
245
5773
5774
5775
5776
5777
5778
5779
5780
5781
5782
5783
5784
5785
5786
5787
5788
5789
5790
14245
8431
9379
9380
9381
9382
5186
14696
912
913
914
915
916
917
918
919
920
921
922
9660
3271
4115
4114
1796
1797
1798
1799
1800
1801
1802
1803
1804
1805
1806
1807
1403
9304
10931
6295
6296
6297
6298
6572
6574
11262
11293
191
8448
14489
2293
8101
14301
10625
10626
187
7035
7036
7034
7052
7048
7049
7050
8542
8543
8544
9365
9614
9874
5541
12560
12561
12562
12563
12564
12565
12566
12553
12554
12555
12556
12557
12558
12559
9565
9566
9567
9568
9569
7939
6635
6636
6637
6638
6639
6621
6622
6623
6624
6625
6626
6627
5899
5900
5901
5902
5903
5889
5890
5891
5892
5893
5894
5895
5896
5897
5898
14603
10064
10065
10066
10067
107
8812
8813
8811
13145
13146
13147
13144
14274
9470
9467
6765
6683
5555
7988
12208
2079
3264
4180
4181
4182
4183
4184
9570
4764
4765
4766
3155
9966
11295
11297
8064
8065
11306
8162
224
222
6
223
2179
2180
14767
10506
10507
7083
7084
7085
7077
7078
7079
7080
7081
7082
209
11643
11645
11646
4046
3388
8507
8508
8509
8510
8511
8512
8513
8514
8515
6352
6353
6354
6355
6356
6357
6358
6359
6360
6361
6362
6363
6364
6365
628
629
5227
5228
5229
5230
5231
5232
5218
5219
5220
5221
5222
5223
5224
5225
5226
2052
2053
2054
2055
2056
808
9875
3285
1300
14475
14476
14477
14478
14479
3610
4908
3280
5190
1031
14162
5579
5580
11086
1836
5571
5572
5573
5574
5575
5576
5577
5578
137
13092
11437
3679
11168
9376
11583
14013
13271
11738
5696
8258
157
12730
12731
12732
12733
4001
8516
8917
10185
3279
3709
8852
1391
12533
12534
10059
13420
13421
12363
895
13990
14769
336
4435
4436
4437
4438
12167
9587
2712
9384
5803
8262
4042
4043
4044
14279
14340
14341
14342
14343
14344
14345
14346
9911
173
5124
5140
11906
624
625
2004
2005
2003
2006
2007
2008
2009
6971
14114
14115
14116
14117
14118
14119
14120
14121
14122
11623
220
11644
6967
6968
10636
10635
13993
14691
4614
4615
686
5470
5471
5472
6050
14435
14581
14582
14583
14584
14585
14586
14587
14588
14589
1615
1616
1617
1618
1619
1620
1621
6366
6367
6368
6369
6370
6371
6372
6373
6374
12816
12817
12818
12819
12820
535
536
537
538
539
7909
12323
12335
7906
10340
11950
1825
1826
1827
10978
10979
14470
10481
8820
449
1016
1014
1015
274
14009
6793
2198
7761
7762
7763
7764
7765
7766
7767
7666
7667
7668
7669
7670
7671
7672
7673
7674
7675
7676
7677
7678
9630
8327
9246
14768
13155
3383
2764
115
6507
6508
6509
6510
6511
6512
7201
7202
7203
7204
12073
12075
12076
12077
12078
10588
10878
13536
4129
4130
546
547
8464
8467
7132
12738
7134
12739
7136
11749
7138
9513
2277
3327
4402
7880
5911
14371
5520
5521
5522
14277
5036
5037
5038
5039
5040
5041
5042
5043
5044
10936
2710
2761
2762
2763
2756
2757
2758
2759
2760
13588
13589
13590
13591
13592
13593
13594
13595
13596
13597
13598
13599
13600
13601
13602
7691
7692
7693
7694
7695
7696
7697
7698
7699
7700
7701
7973
7974
7975
7976
7977
7978
7979
7980
7981
7982
7983
7984
7985
7986
7688
7689
7690
3854
3855
4003
4004
10154
10155
10156
10157
10158
10159
10160
52
53
56
58
1857
1859
7031
7033
7915
7916
7917
7918
7919
7920
7912
7913
7914
8380
129
7588
13293
14227
14404
9274
4787
13438
8602
11005
11006
11007
11008
11009
11296
11298
11299
11300
11301
11302
11303
11307
11310
8018
8019
8020
8021
8022
8023
8024
8025
8026
8027
8028
8175
8176
1553
1554
1555
1556
1557
1558
1559
1560
1561
1562
1563
1564
1565
1566
1567
1568
1569
1570
1571
1572
1573
2890
2743
9484
9485
9486
9487
9488
9489
9490
9491
9492
9493
11873
11874
11875
11876
11877
11878
11879
11880
11881
11882
11883
11884
9482
9483
3275
3153
7415
7327
7328
3272
10514
10515
10516
10517
8982
10518
10519
10520
10521
10522
10523
10524
10525
10526
10527
10528
12054
12055
11956
8280
8281
5878
5879
5880
5881
5882
5883
5884
5885
7546
5887
5888
247
9601
9602
9603
3095
829
830
3096
1005
410
8527
14355
14356
14357
14358
14359
14360
14361
14350
14351
14352
14353
14354
12595
3260
12175
12176
6286
6287
6288
6289
8732
8733
8734
8736
8737
8738
8741
8742
8743
8744
8745
8746
9008
6448
6449
6450
6451
6452
6453
6454
6455
9009
9010
12093
12094
12095
12096
6721
6722
6723
6724
6725
6726
6727
6728
6730
6731
6732
6733
6734
6735
6736
6737
12881
12119
12120
12121
12122
12883
12884
7655
7656
7657
7658
7659
7660
7661
7662
7663
12882
6273
6274
6275
6276
12169
12170
12171
12172
12173
12174
10855
10856
10857
3253
4237
4238
4239
4240
4241
4242
4243
4244
4245
4246
4247
14041
14042
14043
14044
14045
14046
14047
14048
14049
14050
14051
3098
9307
10989
1608
1609
1610
1611
1612
1613
1614
1307
4215
4216
4217
4218
4219
4220
1380
6592
6575
13654
13655
13656
13657
13658
13659
13660
14459
14460
14461
14462
9224
9225
9226
5935
5936
5937
5938
5939
5940
10401
10402
10403
9869
2266
5338
4996
4997
4998
1042
8563
7776
4107
4108
804
805
9011
9012
3008
3009
13518
13519
13520
13521
12136
12137
4465
4466
4099
4100
4101
4102
13126
2335
2336
2337
2338
2339
13227
13400
12025
5502
1268
3879
3880
4828
14384
3118
3119
3100
3004
3005
3006
3007
3101
10398
3075
3076
3845
14537
14181
14182
14183
14184
14185
7996
3324
14398
3838
2333
14669
4118
4119
4120
4121
4122
4123
4124
4125
4126
4127
5971
14604
798
3657
6923
6924
6925
6926
6927
6928
6929
6930
6931
6932
6933
6934
6935
6936
6937
6938
6863
6864
6865
6866
6867
6868
6869
6870
6871
6872
6873
6874
6875
6876
6877
6878
6879
6880
6881
6882
6883
6884
6885
6886
6887
6888
6889
6911
6912
6913
6914
6915
6916
6917
6918
6919
6920
6921
6922
144
13305
10280
13
8489
11905
6114
9873
2167
1860
4041
3746
3745
3983
3984
3985
3986
3987
3988
3989
3990
3991
3992
3993
3994
3870
3871
3872
3873
3874
3875
1409
1681
11169
12889
12887
74
820
821
11033
13253
4497
6290
4085
1493
1495
9563
9594
11041
11042
11043
11044
11045
13396
5020
3926
10360
3605
448
12168
12032
12290
12291
13669
13732
9125
9126
447
10014
10209
7738
7653
7654
2121
2122
2123
2124
2125
2126
2127
2134
2135
2136
2137
2138
2139
2140
3173
2141
2142
10206
10207
10208
6767
6768
6769
6770
7283
7284
7285
7286
7287
7288
7289
7290
7291
7292
7293
7294
7295
7296
7297
7298
2170
2171
2172
2173
2174
2175
2176
7299
7300
7301
7302
7303
7304
8933
9002
9003
4322
9004
3270
8934
8918
8919
8920
8921
8922
3806
3807
3808
3809
3810
3811
3812
3813
3814
3815
3816
3817
3818
3819
3820
3821
3822
3823
3824
3825
7418
3856
8988
10142
8488
4905
4906
4907
8491
802
8494
8495
8496
8497
8498
8499
8500
9005
9006
9007
9060
11072
9061
8930
4948
8931
4950
8932
1877
1878
1879
1880
1881
1882
1883
1884
1885
1886
1887
1888
1889
2922
2923
1890
1891
9064
11143
11144
9612
9613
1923
1924
1925
10125
10126
10127
10128
10129
10130
10131
10132
1934
1935
1936
1937
1938
10133
10134
10135
10136
10137
10138
10139
10140
10141
4005
10143
10144
10145
10146
10147
10148
9135
1965
1966
1967
1968
1969
1970
1971
1972
10205
10177
10178
10179
10180
10181
10182
4550
10183
9059
10204
4572
4573
4574
4575
4576
4577
4578
4579
4580
4581
4582
4583
7649
7650
7651
7652
2534
2535
2536
2537
2538
9062
9063
7166
7167
7168
7169
7170
7171
7172
3593
5073
5293
5294
5295
5296
14110
844
845
846
847
848
849
850
851
852
853
854
855
868
869
870
871
872
873
874
875
876
877
878
879
3770
3768
3769
13244
14723
3121
3122
3123
3124
3125
3126
3127
3128
3129
3130
3131
3132
3133
3134
3135
3136
3137
3138
3139
3140
3141
3142
3143
3144
3145
3146
3147
3148
3963
3964
3965
13777
276
277
278
279
280
9865
4804
6272
7568
1410
1411
7182
8673
1408
5345
5355
5356
14003
14004
14005
14001
14002
5352
5353
5354
9290
9964
9965
8114
8115
8116
13150
11933
13151
13152
13153
13154
10108
8440
2166
11706
9506
13898
4174
4175
4176
4177
12292
10873
10874
2
422
864
865
866
867
856
857
858
859
860
861
862
863
10058
14397
7862
7863
10362
1922
1735
7997
11817
14501
2345
2346
2347
2348
2349
9136
2182
2183
9138
9137
9139
9140
11322
11323
11324
11325
11326
11327
11328
11329
11330
11331
11332
11333
11334
11335
11336
11337
11338
8326
7840
10744
10745
10746
10747
12454
8451
1991
1992
1993
1994
1995
9940
7992
775
7950
14436
8589
5586
3802
7063
7064
7065
7066
7067
7068
7069
7070
7071
7072
7073
12341
12342
12343
12344
12345
12346
12347
12348
12349
12350
12351
6377
13354
13355
13356
13357
4443
4444
4445
4446
1308
1973
4151
4152
4154
4155
4156
4157
4158
4159
4160
4161
4162
4163
13542
14268
14263
1385
2709
8012
8013
8014
8015
8016
8017
14176
14177
14178
14179
14180
11582
3765
3766
3767
7062
1094
1095
7060
5643
5644
5645
5638
5639
5640
5641
5642
1711
14457
6027
6028
6029
6030
6031
6032
6033
6034
6035
6036
6037
6038
6039
6040
6041
6023
6024
6025
6026
4400
12931
12932
12933
12934
11035
12240
12241
12242
12243
12244
12245
12246
12247
12238
12239
138
13093
11438
9305
1586
1587
1588
1589
1590
1591
1592
6059
11756
10062
11757
102
8342
8343
8344
8345
8346
11753
11755
9158
11754
6055
6056
6057
6058
10589
10590
10591
10592
10593
10594
10595
10596
10597
10598
10599
10600
11073
2196
13134
13135
13136
493
494
495
496
497
498
499
500
6400
6401
6402
6403
6404
6405
6406
2744
13771
9055
14441
11792
11793
11794
11795
11796
11797
11798
1474
10578
9715
4185
4186
4187
4188
4189
4190
10028
10032
10033
10034
10027
7263
7264
7265
7266
7267
7268
7269
139
3358
3359
3360
3361
14464
1698
1699
1700
1701
1702
1703
1704
1705
1706
1707
1708
3786
3787
3780
3781
3782
3783
3784
3785
1811
77
2734
4370
4371
4372
4373
4374
4375
4376
4377
4378
4379
4380
4381
4382
4383
4384
4385
3490
3491
3492
3493
3494
3495
3496
3497
3498
3499
3500
3501
3502
3503
3504
3505
14015
14173
2088
2089
2843
2844
2846
2847
12954
12955
12956
12957
12958
11462
11463
11464
11465
11466
14423
8616
14112
3619
3620
3621
3622
3623
3624
1293
3284
12052
12053
14566
13110
9820
350
11180
142
4931
4932
4933
4934
4935
4936
4937
4938
4939
4940
8682
8683
8684
8685
8686
8687
8688
8689
8690
8691
121
2640
2632
2635
7306
12842
12843
12844
12845
11594
13290
7864
7865
7866
2143
2144
1389
14674
4709
9458
9459
9460
9461
9462
9463
9464
8624
8625
8626
8627
764
765
766
767
6195
6196
6197
6198
6199
6200
6201
6202
6203
6204
6205
6206
6207
6208
6209
6210
6211
6212
6213
6214
6215
6216
6217
6218
8802
8803
8804
8805
8806
3282
9291
14149
14150
14151
14152
421
10665
9596
10020
10021
11308
11309
11311
11312
11313
11314
10039
10040
5955
5956
5957
5958
5959
5960
5961
5962
5963
5964
5965
5966
5967
5968
326
327
10707
10708
8293
8294
356
357
8177
8178
360
361
8181
8182
1393
1394
5636
5637
6316
6317
6318
6319
6320
6321
6322
6323
6324
6325
12755
12756
12757
12758
12759
12760
12761
12762
12763
12764
12765
12766
12767
12768
12769
4116
4117
4110
4111
5628
5629
14302
11353
12074
10256
841
842
1047
8582
13395
14163
14008
899
7957
7958
11315
11316
11317
11318
11319
11320
11321
8029
8030
8031
8032
8033
8034
11720
1297
1296
8332
8333
8331
8330
8329
1977
1978
1979
1980
1981
1982
1983
1984
1985
12026
12027
12028
12029
12030
12031
14395
14724
14725
14726
14727
10162
10163
10164
10165
10166
10167
10168
10169
11871
11872
13094
13095
14670
5343
4890
4891
4892
4893
4894
4895
4896
9456
9457
9465
9466
9913
9914
669
9450
9451
12177
4498
11951
4485
6456
6457
6458
6459
4474
4475
3585
4486
12114
12115
6738
6739
6740
6741
12116
12117
12118
4482
4483
4484
3574
3575
3576
3577
3578
3579
3580
4478
3581
3582
3583
3584
3586
4476
4477
4479
4480
4481
14142
11011
2718
14672
511
9358
163
7037
7038
7039
10542
10543
10544
10545
10546
10547
10548
8501
8502
8503
10549
10550
11079
11080
11081
10210
10211
10212
10213
10214
10215
10216
10217
3317
3318
3319
13067
13061
13062
13063
13064
13065
7044
7045
7046
13066
13068
11632
5657
5658
5659
5660
5661
5662
5663
5664
5665
5666
5667
5668
5669
5670
5671
5672
5673
5674
5675
5676
8399
8400
8401
8402
8403
8404
8405
8406
8407
8408
10069
10070
10071
10072
10073
10074
10075
10076
10077
10078
6256
6257
6258
8187
8188
8189
8190
8191
8192
8193
8194
8195
8196
9846
9847
9848
9849
14105
14106
14107
14108
14109
3792
3844
11257
11598
2050
2051
1416
1417
1418
7322
7323
7324
2041
22
23
24
25
26
27
28
29
30
31
32
2042
2043
2044
2045
2046
7253
7254
7255
2016
2017
2018
2019
2020
2021
2022
2023
2024
2025
2026
2027
2028
2029
2030
2031
2032
2033
2034
2035
2036
2037
2038
2039
374
375
376
377
378
379
2040
2047
2048
2049
10447
10319
10320
10321
10322
10323
10324
11167
9593
6568
6569
1959
1960
1961
11640
9253
12906
2294
13399
3187
3348
3686
3688
3255
3256
3257
3258
3259
1158
1159
1160
1161
1162
1163
1164
14700
14701
14698
14699
3116
5347
5348
5349
5350
5351
2187
2188
2189
2190
2191
2192
232
10451
10452
231
10887
14144
7968
14766
10832
14218
13902
8642
11013
170
10977
14217
11669
4971
4972
4962
4963
4964
4970
3485
106
9141
9142
9143
9144
9145
9146
9147
9148
9149
9150
771
4995
4992
4993
4994
6578
211
212
14026
4256
4257
4258
4259
4260
4261
4262
4263
2280
11170
1766
2245
2246
7987
7989
7990
823
7972
14159
14160
14161
14192
9816
1459
1238
1239
1240
1241
1242
1243
1244
1245
1246
1247
5279
5280
5281
5282
5283
5284
5285
5286
5287
5288
5308
5309
5310
5311
5312
5318
5319
5320
5321
5322
5323
5324
5325
5326
5327
5328
5329
5330
5331
5332
5333
5334
5335
5336
5337
6515
13373
13374
13375
13376
13377
13378
13379
13380
13381
12460
14427
8532
11166
2169
9586
6790
6516
14076
153
154
155
156
12471
12472
12473
12474
1113
1114
1115
1116
215
216
217
218
219
13143
1717
7556
7557
7558
7559
14267
10764
1017
1018
1019
1020
1021
1022
14036
2782
2783
2784
2785
2786
14758
14759
4743
4744
9283
1439
1440
12821
12822
12823
12824
12825
9923
9924
9925
9926
9927
9928
8267
14167
1821
5805
5806
5807
3953
3954
8265
3413
6603
6604
6605
6606
8228
8229
8230
8231
8232
6602
7883
3530
12432
12433
12434
12435
12436
12437
12438
12439
12440
12441
12442
12443
12444
12445
10333
10334
10335
10336
10337
8674
8675
8676
8677
8678
8679
8680
10338
10339
5339
14668
14666
14667
5208
4045
9580
9581
9582
9583
9584
64
65
66
67
62
63
13789
13790
13791
13792
13793
13794
13795
13796
13797
13798
13799
13800
13801
13802
13803
3278
3472
2295
2296
2297
2298
2299
2300
2301
11184
3742
7613
533
3064
119
11234
13414
442
9068
11036
10835
10836
4975
4977
4978
4979
4980
4981
4982
4984
4985
4986
4987
4988
4989
4990
4991
14570
4584
6969
4785
2262
2263
9368
7043
9293
12497
12498
12499
12500
591
592
593
594
595
11557
11558
11560
11562
11564
1291
14765
11607
12476
12477
12478
12479
12480
12481
12482
12483
12484
12485
12486
12487
12488
12489
12490
12491
12492
12493
4179
3535
7320
7321
10629
10630
10631
10632
11247
11252
7511
14304
9151
7871
7872
10719
10720
10693
9958
11245
10443
1087
7101
7102
10957
8504
8505
8506
7742
630
631
10956
12207
3655
900
9235
10870
816
1272
794
14443
8629
8630
8631
8766
8767
8768
576
577
578
579
573
574
575
13096
117
5031
10479
2434
13458
13459
13460
13461
13462
13463
13464
13465
13466
13467
13468
13469
3606
6601
4002
11010
14761
14762
7961
7962
7965
7966
7075
7076
666
667
3883
3884
3885
3886
3887
3888
3889
3890
3891
7086
7087
7090
7091
7092
7093
7094
7095
7096
7097
7098
7105
7106
7107
7108
7109
7110
7111
7112
7113
7114
7945
7946
9932
9933
9934
9935
9936
9937
9938
9922
9929
9930
9931
11407
11403
11404
11405
11406
1694
14169
4967
4968
4969
10260
10259
10060
1285
1286
1287
1288
1322
3162
8323
12467
12468
12469
12470
10029
10030
10031
1771
14079
12397
9804
9805
11061
9070
9035
9036
9037
9038
9039
9040
9042
9043
9044
9045
9046
9967
9968
9969
9970
9971
9972
9977
9978
8059
8060
8061
8062
9979
9980
9981
9982
6640
6641
6642
6643
6644
6628
6629
6630
6631
6632
6633
6634
1225
1216
14467
10439
3955
5863
8749
8750
10935
6042
8321
6307
6308
14386
13422
13413
13416
4131
6600
480
4973
4974
485
486
487
488
477
478
479
9478
9475
5177
9839
9819
3315
508
9232
9299
182
8459
3157
3704
3850
6650
6651
6652
6653
6654
6655
11599
5297
5298
5299
5300
5301
5302
5303
5304
5305
5306
5307
6596
8782
8720
8721
14682
11670
11215
11216
11217
11218
11219
11220
11221
11222
11223
11224
11225
11226
11227
11228
11229
11213
11214
14598
12890
3036
3037
7830
7829
6583
14081
14082
14083
14084
14085
886
887
9628
6252
6253
6254
7531
7532
7530
4830
6151
10955
481
482
483
484
9517
9518
12405
12354
12355
12356
85
12357
12358
12359
13891
1585
14468
5035
5027
5028
5029
5030
5032
5033
5034
4459
4460
3852
4086
4087
4088
4089
4457
4458
3316
12624
12625
12623
12915
12916
12917
12918
14323
14324
14319
14320
14321
14322
10331
12920
12921
12919
6244
11064
11235
9863
9866
8461
8462
7602
7603
8449
8450
8547
8550
8458
7722
8084
8085
8086
8087
8088
8089
8090
8091
8092
8093
8094
8095
8096
8097
8098
8099
11818
11819
11820
11821
11822
11823
11824
11825
13769
14283
3901
3902
3903
3904
3905
3906
3907
3908
3909
3910
3911
3912
3913
3914
3915
3916
13261
13262
13263
4945
13264
13265
13266
13267
13268
14282
5597
5598
5599
5600
5601
5602
5603
5604
5605
5606
5607
5608
5609
5610
5611
5612
14284
14285
14286
14287
13695
14288
13317
14289
9234
4788
13343
13344
14760
9249
14381
13772
9056
13779
13780
13781
13782
13783
13784
13785
13786
13787
440
3345
3186
3346
3347
8131
3685
3687
1870
2256
2257
2258
14458
12973
10672
13630
13631
13632
13633
13634
13635
13636
11647
11256
1413
7827
12312
12314
12316
12317
12318
12319
4646
4649
4651
4652
4653
12338
562
563
10822
10823
10824
13390
8780
10829
10830
13406
13407
13408
12384
13417
13418
3436
3437
3438
3194
1266
1267
5499
5500
10365
7841
7842
7843
7844
7845
9636
9637
9638
9639
9640
9641
9642
9643
9644
9645
1190
1191
1192
1193
1194
1195
1196
1197
1198
1199
8787
8788
8789
8790
8791
8815
8816
8817
8818
8819
3474
14594
909
910
911
9546
158
2742
13402
13403
13404
13405
13440
13441
13387
13388
13391
13392
8795
12294
7010
4206
4207
4208
4209
4210
4211
4212
4213
4214
4064
4065
4066
4067
4068
4069
4070
4071
4072
14011
7948
7949
314
315
316
317
318
319
12187
12188
13727
13728
13729
13730
13731
7619
4805
4806
4807
4808
4809
4810
4811
4812
4813
4814
4815
4816
4817
4818
4819
4820
4821
4822
4824
8945
8946
8947
3211
3212
1132
1133
1134
1135
1136
1137
1138
9270
8769
8770
8771
3021
3022
3023
3024
3025
8432
10099
776
777
780
8793
783
784
785
786
787
7163
7103
7104
8006
11747
8004
8005
8295
407
10685
10966
342
12496
796
12501
12502
12503
12504
12505
12506
12507
12508
12509
12510
475
795
476
797
12495
10327
9700
3509
3510
3511
3512
3513
3514
3515
3516
3517
14599
12725
7882
13637
13638
13639
13640
13641
13642
13643
178
3193
11569
3531
3306
3307
3308
3309
3310
3311
3304
3305
21
296
297
298
299
4844
4845
3995
3996
3997
3998
3999
4000
8936
8937
13442
13443
13444
13445
13446
1809
1810
1876
1768
169
1303
10710
6261
11866
8632
10722
8590
14437
2181
9836
9837
10487
9371
8800
11429
9027
9028
9831
3430
12464
12465
12466
14140
8470
3708
10994
1759
6595
6571
5519
1386
14408
8108
14338
10892
1004
9472
2195
3736
8580
11718
331
2503
2504
2505
2506
2507
2508
2509
2510
2511
2512
2513
2514
2515
1010
168
3721
210
11939
11940
11941
11942
11943
5197
9221
5179
5180
5181
5178
5067
5068
5069
5061
5062
5063
5064
5065
5066
882
883
1078
1079
5560
2706
2707
2708
10604
9165
9166
9167
9168
10605
10606
10607
13235
13236
13237
13238
13239
13903
3240
8492
8493
10252
10161
8659
9721
8444
10113
9065
10538
548
8529
8531
5973
5974
5975
5976
5977
5978
5979
5980
5981
5982
5983
5984
5985
5986
11751
7140
12770
7143
1682
11596
13209
13210
13208
10814
10815
10818
10819
5931
5932
5933
5924
5925
5926
5927
5928
5929
5930
8471
1933
8472
8473
8474
8475
8476
8477
8478
8479
8480
8481
8482
8484
8485
8483
8486
8487
1962
1963
1964
436
346
2214
750
13112
13113
13114
13115
13116
13117
13118
13119
13120
3793
5531
5532
7959
7960
3167
13904
13905
13906
13907
13908
13909
13910
13911
13912
13913
13914
13915
13916
13917
13918
13919
13920
13921
13922
13923
13924
13925
13926
13927
13928
13929
13930
13931
13932
13933
13934
13935
13936
13937
13938
13939
13940
13941
13942
13943
13944
13945
13946
13947
13948
13949
13950
13951
13952
13953
13954
13955
13956
13957
13958
13959
13960
13961
13962
13963
13964
13965
13966
13967
13968
13969
13970
13971
13972
13973
13974
13975
13976
13977
13978
13979
13980
13981
13982
13983
3640
9387
10381
9821
9662
9822
14732
9207
9208
9209
9210
8490
441
13107
9295
7994
8396
11305
11745
11304
6117
6118
8394
8395
4178
11030
4611
4612
4613
4610
3332
3333
3334
3335
2197
459
13697
6530
14533
11181
3350
3351
3352
3353
251
252
7429
7601
408
10909
2892
2893
2894
2895
2904
2905
2906
2907
14034
10614
8646
10315
10601
10602
10603
2732
2733
13156
9884
9885
9886
9887
9888
9889
9890
9897
9898
9899
9900
9901
9902
9903
9904
9905
9906
9907
9908
9909
9910
7487
7488
7489
7490
7491
7492
7493
7921
7922
7923
7924
7925
7926
7927
7929
7930
7931
7932
7933
7934
7935
9708
9709
9710
9711
9712
9713
9714
9704
9705
9706
9707
10530
10531
10532
10533
10534
10535
10536
12599
12600
12601
12602
12603
12604
12605
12606
12607
12608
12609
12610
12611
8433
8434
8435
8436
8437
8438
10100
10101
10102
10103
10104
10105
10106
7444
7442
5919
8822
11590
3079
1437
1438
1441
1442
1443
1444
1445
1446
1447
1448
1449
1450
1451
1452
1453
1454
1455
1456
1457
5004
5005
5006
5007
5008
1740
8896
8897
8898
8899
1742
8581
11084
12802
2084
2085
12494
14689
12792
12596
12597
12598
8565
10237
10781
10782
10783
10784
10785
10786
10787
10788
2670
14165
1683
3268
14057
3900
14538
9438
18
9439
11206
11207
10341
10342
10343
14633
13476
13477
13478
13479
13480
6415
6416
6417
6418
6419
6420
6421
6422
6423
6424
6425
6426
68
69
70
71
72
73
12583
12584
12585
12586
12587
12588
12589
12590
12591
12592
12593
10414
10415
12594
10551
7612
8566
10238
10239
13899
8204
8205
8206
8214
8215
8216
8217
8218
8219
8220
8221
8222
8223
8224
8225
8226
7519
7520
7521
7522
7523
7524
7525
603
604
605
606
607
608
609
7526
617
618
619
620
621
622
623
8199
8200
8201
8202
8203
96
97
98
99
100
101
1088
1089
1090
1091
1092
1102
1103
1104
1105
1106
1107
7512
14255
14186
14187
14188
14189
14190
185
3168
424
425
426
427
428
429
430
431
432
433
434
435
13058
1691
1696
4686
4687
4688
4689
4690
8821
12284
12285
12286
12287
12288
9799
12930
9939
9633
11584
3188
11689
9432
10221
8526
11248
10967
10968
10940
6175
6176
6177
6178
6179
6180
6181
6182
6183
10464
4662
4663
4664
4665
4666
4667
4729
4730
4731
4732
4733
4734
4735
1678
9357
7789
7790
7791
7792
7793
7794
7795
7796
7797
10910
10879
13255
7074
11752
7144
1305
1318
1319
1828
1829
1830
1822
1823
1824
1622
1623
1624
1625
1626
1627
12336
12337
14259
4420
4421
4422
4423
4424
4425
4426
4049
7876
7969
13149
3099
4782
13410
1506
1507
1508
1509
1510
1511
10495
13453
8866
8867
8859
8860
8861
5533
5534
5535
5536
5537
5538
8862
8863
4133
4134
4135
4136
4137
4138
4139
4140
4141
4142
4143
4144
4145
4146
4147
4148
4149
4150
8873
8874
8872
9128
8875
9129
9130
8876
9131
9127
9132
9133
9134
12150
12151
12152
12153
12154
12155
12156
12157
12158
8864
8865
12724
8045
10680
10681
7047
635
636
2154
2155
2156
2157
2158
2159
2160
2161
2162
1946
1947
1948
1949
1950
1951
3562
3563
3564
3565
3566
3558
3559
3560
3561
10757
10758
10759
10760
10761
10762
10763
1294
14773
13056
9248
5562
10840
10841
10842
10843
10844
10845
10846
10847
10848
10849
4790
4792
4794
4796
4798
4800
4802
3737
11602
12925
12926
12927
12928
880
881
2729
2728
4153
14681
11634
11635
11636
11637
11638
11639
1070
1071
1072
1073
1074
1075
1076
11179
10373
7665
8842
9511
9512
9507
9508
9509
9510
7846
7847
7848
7849
7850
10652
10653
10654
10655
10656
10657
10658
10659
10660
10661
8439
10107
9373
9374
9375
7721
13125
416
1
415
12806
3899
1306
14372
4103
4104
4105
4106
7886
7887
7888
7889
7890
7891
9855
9856
9857
9858
9859
9860
3325
9658
13322
992
993
994
995
7513
7514
7515
7516
7517
9963
9959
9960
9961
9962
991
9385
8278
11687
11688
11685
11686
14305
10061
8335
13559
3091
7861
1270
6049
4639
4640
4641
4642
3191
512
514
515
4489
4490
78
79
633
634
637
4248
4249
4250
4251
4252
4253
4254
4255
13482
4303
4312
4313
4314
4315
4316
4317
4318
4319
4320
4321
11509
11510
11511
11512
11513
11514
11515
11516
11517
11518
7428
9505
3878
12079
12080
12081
12082
12083
12084
12085
12086
12087
12088
12089
12090
12091
12092
4951
4467
4468
4487
4488
11661
11662
4491
4492
4493
4494
4495
4496
11664
11665
11666
11663
11667
11668
11679
11680
11681
11682
11683
11684
4552
467
4073
4074
4075
4076
4077
4078
4079
4080
4081
4082
4084
7683
7684
7685
7686
7687
9284
9285
9286
10416
8994
8995
8996
8997
8998
8
4544
4546
2889
9589
888
10512
901
14137
9288
6219
6220
6221
6222
6223
6224
6225
6226
6227
6228
6229
6230
6231
6232
6233
6234
14612
14613
14606
14607
14608
14609
14610
14611
10609
10610
10611
10612
10613
11705
13258
5581
14530
9164
9162
9163
3532
2248
8536
8537
8538
11069
11070
11071
8173
11111
14652
14653
8888
1772
1773
3716
1228
1412
4010
4011
4012
4008
4009
14790
1165
12570
12571
12572
12573
2583
2584
2585
2586
2587
934
935
936
937
938
939
940
941
942
943
944
12422
11595
6673
2891
8754
5123
11648
9230
9231
9240
9241
12328
9256
9257
9264
9265
3639
13894
86
87
88
89
9838
3181
10374
6794
13986
10397
11944
11945
11946
11947
11948
11949
2222
2223
2224
2226
2227
2228
2229
2230
2231
2232
2233
2234
2235
2236
2238
2239
2240
2242
2243
2244
8901
8902
8903
8904
8905
8913
1223
1224
8914
2267
2268
2269
2270
2271
2272
2273
2274
2275
10494
6970
818
819
7016
13174
13175
7026
13176
13177
13178
13179
13180
13181
13182
8900
13183
12160
12161
13184
13185
13186
13187
14733
13710
13711
12180
12181
12182
12183
12184
13761
3038
3039
3040
3041
3042
3043
3044
3045
3046
8681
3047
3048
3049
3050
3051
3052
3053
3054
3055
3056
3057
3058
3059
3060
3061
7940
7941
7942
7943
6988
6989
464
1232
10725
6612
6613
6614
6615
6616
8825
3533
14056
6193
11776
13123
13124
13069
4619
4620
4621
4622
4616
4617
4618
10024
8183
8184
10696
10025
10697
1689
9188
9189
8082
11173
6315
4672
4673
4674
4675
6312
6313
6314
8159
1478
1479
1480
1481
1482
7207
7208
7209
7210
10667
10668
10669
10670
7215
7216
7217
7218
7219
10671
723
724
725
726
727
728
729
730
731
732
733
734
8066
8067
8068
8069
8070
8071
12425
12009
5498
1265
3868
3869
12008
6145
6146
6147
6148
6149
7617
799
13217
13218
13219
13220
13221
162
1483
1484
1485
1489
1490
1491
12352
10316
10317
10318
12385
12396
6259
12420
12421
10444
4343
4344
4345
4346
4347
4348
4349
4350
8441
8442
10505
10529
6446
6447
6469
380
381
382
8648
8649
4553
4554
4555
4556
4557
4558
4559
4560
4561
4562
4563
4564
4565
8663
4566
8650
8651
8667
8668
8652
8661
8662
8653
8664
8665
8666
8669
8670
8671
8657
8658
8660
510
527
528
529
549
550
551
552
553
6711
6712
6713
6714
6715
6716
6717
6718
6719
6720
6771
6772
6773
6774
6775
6776
6777
6778
6779
2686
2687
2688
2689
2692
2693
2694
2695
2696
2697
2700
2701
13013
13014
13015
13016
13017
13018
13019
13020
13021
13022
13023
13024
13025
13026
13027
13028
13029
13030
13031
13032
13033
4837
4838
4839
4840
4848
4849
4850
4851
9034
7119
7130
13318
13319
13320
13321
9233
13336
13337
13339
13340
7329
7330
7331
7332
7333
7334
7335
7336
7337
7338
7339
7340
7341
7342
7343
7344
7345
7346
7347
7348
7349
7350
7351
7352
7353
7354
7355
7356
7357
7358
7362
7363
7364
7365
7366
7367
7368
7369
7370
7371
7373
3277
7374
7375
7376
3281
7377
7378
7379
7380
7381
7382
7383
7384
7385
7386
7387
7388
7389
7390
7391
7392
7393
7394
7395
7396
7397
7398
7399
7400
7401
7403
7404
7405
7407
7408
7402
7406
7409
7410
7411
7412
5437
5438
5439
5440
5441
5442
5443
5444
5445
5446
5447
5448
5449
5450
7518
5475
5476
5477
5478
5479
5480
7529
5481
5482
5483
5484
5485
5486
5487
5488
5489
5490
5491
5492
5493
5494
5495
5496
5497
11650
11651
11652
11653
7589
7590
7591
7592
7593
7594
7595
7596
7597
7598
13762
9666
11770
11771
11772
11773
11778
11779
11780
11787
11788
11789
11790
11791
5646
5647
5648
5649
5650
5651
5652
5653
5654
5655
5656
11800
11801
11802
11803
11804
11805
11806
11807
11808
13888
13889
13890
11839
11840
11841
11842
11843
11844
11845
11846
11847
11848
11849
11850
11851
11852
11860
11861
11862
11863
11864
12007
12068
12069
12070
12071
10026
10109
10110
10112
10115
12189
12190
12191
12192
12193
12194
12195
12196
12197
12199
12200
11799
4013
4014
4015
4016
4017
4018
4019
4020
6115
6116
8197
8140
8133
8134
8135
8136
8137
8138
8139
13623
13624
13625
13626
13627
13628
13629
13578
13579
13580
13581
13582
11488
3382
3443
3444
3445
10186
5003
5009
5010
5011
5012
5013
4999
5000
5001
5002
3243
1384
14695
6990
6991
1815
10877
4831
10914
11774
10837
1080
12463
14143
14535
5357
5213
5358
10865
11190
11191
11192
11193
11194
11195
11196
11197
11198
11199
11200
11201
11202
11203
11204
11205
12248
4427
4428
4429
4430
4431
4432
4433
4434
4439
4440
4441
4442
9440
9441
9442
9443
13254
6497
6498
6499
6500
6501
6502
6503
6504
6505
6506
3534
4691
4692
4693
4694
4695
4696
3068
4706
4707
4708
4901
201
14491
14492
14493
14494
14495
14496
14497
14498
14499
3707
5716
5717
5718
5719
5720
5721
5722
5723
5724
5725
5726
5727
5728
5729
5730
14746
14747
14748
14749
14750
14751
14752
14753
14754
14755
14756
1236
9170
9171
9172
9173
9174
9175
2613
2612
1688
3330
3331
3328
3329
5804
8286
181
8260
8261
8263
8264
5801
5802
6607
6608
6609
6610
6611
13423
412
826
827
76
1317
2900
2901
2902
2903
14012
13613
13609
1693
14271
6577
3312
3313
95
2279
2633
5907
5904
5905
5906
5791
5792
5793
5794
5795
5796
5797
5798
5799
5800
213
214
14164
12218
12219
12220
12221
12222
8011
674
14175
9947
12058
12059
12060
12061
12062
12063
12064
12065
12066
6097
6098
6099
6100
6101
6102
6103
6104
6105
11759
11760
11761
11762
11763
11764
11765
11766
11767
801
3607
5192
9862
221
9196
9197
9198
9199
9200
8083
9053
8963
9957
8524
10220
10959
10939
10941
10463
10953
8890
227
228
10453
6517
6518
10454
1814
14031
14032
14033
1057
1058
1059
14622
8058
14247
10689
10690
8615
13102
840
11728
8174
10895
13270
10013
11597
8354
8355
8356
8357
8358
8359
8360
1716
14614
14615
14616
6705
6706
6707
1258
1259
6690
6691
5380
5381
5382
5383
5384
5385
4789
7061
10124
8151
10623
10624
12785
12786
14654
14655
14656
14657
14658
3287
13111
11655
14246
13451
10496
14388
14389
14390
14391
3656
9605
330
349
768
4585
6262
10711
8633
10556
10723
9220
14307
14308
14309
14310
14311
14312
6672
8824
7533
7534
7535
7536
7537
7538
7539
7540
7541
7542
7543
7544
7545
7507
7508
7509
7510
310
311
312
313
2639
13211
13212
13213
1309
4469
4470
4471
4472
4473
7325
14248
14249
14250
14251
14252
14253
11711
11712
11713
11714
11715
13764
13765
13766
13767
13768
12364
7502
5587
5588
5589
5590
5591
5592
9048
9049
9050
9051
9052
12386
8051
8053
1392
10889
4592
4593
4594
4595
4596
4597
4598
4599
4600
4601
13346
13347
13348
13349
5540
7494
14281
1218
13345
10404
10405
10406
10407
10408
10409
11834
11835
10503
9663
9664
9840
9841
9842
9844
10497
10114
10499
10500
10501
10502
10498
8528
12660
8530
11750
7139
7141
7142
11141
1120
5189
246
