2536
1210
7782
9493
4901
10200
9289
11525
8170
8021
7171
8278
5804
9438
2337
9566
8408
2715
1825
10768
8629
6298
4110
4923
11081
4771
6669
5199
11206
538
4089
11102
10648
5825
3098
2422
5908
2692
4170
5046
8698
2982
11298
10126
10129
6649
5597
5100
8854
3698
11400
6559
12080
3160
5620
3035
5118
12190
2392
7653
12215
5547
3834
3424
6897
1683
10881
6618
1483
3995
357
4192
3909
8776
4353
2517
2231
3785
11270
7894
10543
2543
5767
2154
9210
7413
3045
1743
6011
379
10829
2252
7065
10872
4303
450
3975
5281
3288
4024
3573
4026
1358
2009
2495
10389
8481
5580
9414
2227
3118
473
10574
3006
3671
5582
6561
12084
3658
11205
2856
9968
9088
8390
5202
10141
12113
2629
5682
9381
11604
7932
247
6560
1941
3455
218
3353
6872
7690
4333
11260
9613
11094
3279
2527
3238
3941
11042
10356
11586
11100
6914
9747
7501
2325
7975
1739
10336
6790
8764
200
10351
11802
2540
5147
11797
4630
1621
3994
5814
613
7757
9659
2929
2388
5961
2559
4532
3800
10600
4982
9037
5235
3717
8468
102
5065
4281
4489
533
4411
8849
5853
3501
11203
747
11348
10528
3422
3222
2250
6791
304
4459
2316
2290
6630
6724
3082
4688
135
9814
9220
4245
2389
3777
360
9790
9716
3065
2688
7824
8926
4663
5967
7116
4073
1208
7592
11236
2184
10790
12231
1981
11901
1153
10960
10341
10548
1217
9583
6037
927
2012
11660
396
3059
149
8388
2119
7417
293
10718
8214
3649
11044
311
971
4122
8850
4919
10373
4238
8094
5616
7387
4127
2142
7558
10560
2201
7438
10272
5985
4030
11961
6857
5605
6753
8686
4104
70
2820
4003
10592
11264
8651
3728
1643
10163
4746
8020
3973
5099
2453
2417
7204
6146
7787
7914
8359
8735
11305
1923
5082
47
1965
10297
385
5391
221
8139
8341
11323
624
8251
4336
7033
6073
1197
967
10588
10057
7897
4810
429
2935
8489
6333
5996
11701
2239
2232
9368
11463
6500
11012
6427
6237
4880
10010
1323
19
4438
9119
3043
9591
4985
3819
2664
828
4918
673
7247
3615
11783
4404
937
5384
8039
6074
2288
11028
3495
7498
10132
3325
8630
5430
4201
8146
11248
9489
8045
10290
7985
11504
9647
7976
10064
7974
6839
4099
2732
5129
5404
12051
10124
11124
749
6529
518
10947
9456
7443
5848
11232
3620
3614
4147
9525
4337
10069
4448
3532
9173
11934
7249
6134
2980
6794
9601
10324
12261
1602
5288
5211
290
6825
4783
1213
2218
5812
8328
6196
8346
3855
7665
4475
5938
1964
95
33
5095
2586
9712
9380
3651
6307
8626
59
10260
1139
5762
2039
3037
3400
7883
7144
6057
7854
2236
3187
1950
5761
1068
9572
7766
7601
2340
10109
4826
7850
6096
1793
6739
2102
11580
3154
7746
3846
5654
6045
8509
5038
9134
5284
1006
3706
373
1002
10302
3328
1722
7477
7563
8868
3838
10075
7566
4237
1413
101
3013
7134
3528
10609
10665
10776
2973
5130
10745
11765
11691
11788
12248
12096
7836
6487
11082
99
10749
11801
2596
3772
5025
9690
2318
2576
9083
11234
8900
11089
2420
5111
10110
7520
119
4767
5627
3194
4347
1188
3143
6572
1175
10280
6449
1053
6044
6654
7799
12205
11022
2034
1498
744
2609
5666
3139
5218
12070
11742
2301
9889
1720
10709
5494
7756
4983
2168
10447
8265
424
554
5781
487
7889
8637
7717
5389
10823
3233
8217
2167
468
4860
5282
7954
7620
741
9992
1740
3372
839
2582
3547
11559
3693
2709
9189
9008
1984
3487
7540
12210
5538
7583
5963
5337
6088
245
3393
10990
9537
10128
3794
1864
4584
7893
6975
724
11866
5707
1368
9632
9334
4012
5502
12222
6759
461
6830
1010
2333
932
1121
1701
14
9156
10335
7080
3685
2873
3914
11777
5778
5306
5265
4877
6255
8818
3299
6030
1634
8788
8589
6670
7388
3647
8952
2963
7234
1282
4216
7495
214
5438
9990
5239
3853
3524
4914
7493
7113
2020
11458
3912
9529
772
3433
11427
5058
6125
3297
6373
3519
7377
647
5711
10145
8811
9341
2616
736
8206
2372
7463
7254
1178
10650
7272
31
9416
7229
7603
1586
6870
2380
9683
6023
2174
50
9956
483
11416
11114
3742
5279
8606
7039
8653
8617
10747
6497
8419
9668
11811
10686
1047
299
8300
2366
11077
5504
856
3105
5385
5700
7760
11268
6431
668
2608
3464
6292
10054
3116
8158
8281
2109
11308
9494
10398
3418
8291
4833
6632
1320
1236
9928
970
9534
12117
2554
8097
5945
9419
5687
8064
1373
5817
1250
8825
6105
8802
3827
1402
7764
10184
6071
895
10992
7061
11201
9488
12145
10741
1408
7682
11389
1261
1039
8947
10987
6321
9820
434
7017
3272
8188
2407
5481
5303
3710
8583
11838
12039
1732
1457
12220
9036
4301
5053
8075
5766
8042
5733
6072
10391
5561
4600
2270
6848
2342
10410
3522
5611
850
9535
9783
11392
9858
107
9682
8747
5317
6407
2054
5768
11009
4653
1078
3944
3070
993
3274
217
5349
9500
8151
4655
3550
1595
510
700
5024
9230
1399
7981
9479
4483
573
8693
39
4948
4393
11796
7092
2760
3668
10165
6482
2614
11200
6695
12219
8330
4843
1662
346
6878
11884
11883
3434
2150
6786
10803
251
2754
3429
1512
11473
12038
6137
10955
11026
10815
8729
6661
11680
8069
6245
7013
7886
5914
5503
811
9115
11809
7964
1142
9677
10602
4381
7637
8457
812
8870
177
10330
5272
4707
10780
1570
8478
6779
8749
11282
10771
1427
8413
1369
4040
8180
457
10711
1434
11351
8934
9811
12060
4043
11171
1971
1421
11847
1022
4828
5910
9332
2798
10170
3776
4993
2088
9225
7416
7505
5629
2238
1470
9573
5152
11947
6390
2611
10088
1275
6604
2791
333
5044
3523
7720
8057
1516
303
11919
4291
9377
10655
5499
10999
210
8708
4436
9546
651
11226
8121
10364
8301
2348
2589
3265
9267
7844
9842
11560
9585
7765
5465
1791
10487
4541
10481
8229
2267
3844
6605
6518
10021
6750
1432
8138
8302
2534
1786
1844
8242
11587
9245
10920
398
10236
5210
908
321
9993
10902
2714
2522
592
9102
2144
12188
12140
9403
12109
7831
9468
11668
764
4295
11970
2464
2216
10911
8504
1839
4614
4129
11843
10125
12201
7318
8891
1157
10197
4845
9326
6232
11524
3254
10296
8337
2519
7320
6101
1414
8396
9975
8506
5508
9604
6494
7448
9877
12032
9870
1713
8293
11297
3508
2145
2442
1383
8486
4338
7174
7729
4053
11546
8297
5312
9313
7962
248
4162
8117
11677
562
1954
8806
4365
2638
10936
914
7244
10880
5026
3958
7142
7908
862
3616
8379
7228
10679
1166
180
1562
8923
5720
2998
10288
6849
9024
9770
7127
5236
11360
8218
6685
3650
10536
7379
10027
900
12167
1496
12101
8864
10131
7444
92
5758
10878
9947
7573
2943
4847
5339
1766
11484
9241
2471
1084
9863
8881
8177
4075
3210
2585
10879
6658
9675
3721
2254
408
3559
7971
11973
7930
9767
3851
3470
6906
7960
8176
6862
6508
10318
8748
10839
11766
4782
5522
8403
3038
8542
1351
3132
10094
5289
11977
1669
11869
8290
9191
4313
11503
330
1346
1650
9517
4770
1091
73
7590
7317
5751
7591
9418
5003
41
9370
11225
5544
12182
318
8243
2087
3599
9797
8821
9730
2685
1614
7556
2046
1277
2751
8534
8677
5566
85
1350
6177
1934
2766
1035
9641
6556
3378
2960
6330
9228
1692
11144
4984
9308
8758
2310
1355
6083
9714
10388
4807
1453
9244
12171
898
8876
5829
958
4533
8672
2633
465
3817
3011
5613
6952
4467
868
7946
3088
10759
3773
10437
5909
7467
8326
1688
11930
6119
7706
4335
2002
11256
3461
4279
7510
5271
9542
12174
8309
9936
10553
5331
9857
1111
11874
7524
7702
5873
11024
9839
2021
12194
5362
1347
8541
4189
6211
1665
12040
1219
9012
5852
10575
2984
6249
4091
11541
7202
8421
3130
2701
4447
7169
1530
3931
543
9486
9635
3425
3669
5128
10593
3025
7529
2588
9246
11371
11373
7518
11153
8485
733
4890
3488
5820
7748
6876
2498
1433
2678
11027
5277
3016
12226
1623
9980
6769
10694
10887
12155
1953
8371
5466
3860
11645
3290
902
11902
5598
12127
8536
493
4417
6631
1617
2036
2127
5763
3473
2357
150
8406
4403
11728
2968
11739
8696
1430
7372
4710
11907
1935
4829
708
4253
10710
2483
6552
2531
1491
7369
1090
35
11347
3578
4096
9995
2564
5893
4706
4387
428
11849
10556
3349
6671
3002
5358
5843
11790
5354
11079
9222
2128
9314
8005
2848
10448
704
6143
6532
7711
9171
9603
5664
608
2157
4879
2210
11422
3034
2879
5888
5066
1593
8424
9069
758
6051
3592
5333
7051
12165
6329
6921
7631
399
930
9272
542
10084
8271
3540
11530
1418
4345
1989
5937
5090
4885
2055
11616
367
1393
9815
4702
4442
4194
4429
10507
11771
7441
63
4374
3312
134
5412
11317
10976
10042
2344
3526
5353
4084
5942
10310
696
427
7663
1579
6742
7719
3447
8102
8985
2351
10056
4816
3126
676
4498
10944
8513
7163
8031
5153
6743
6453
6440
6436
8452
9673
9775
9157
12204
6746
7919
2487
10983
11289
2452
740
0
5743
8978
4786
9343
10219
9782
3679
8422
8919
6714
5270
10517
8136
11896
5363
7063
7740
5228
6755
4549
7278
7371
9864
12053
9731
4028
5015
7708
7625
11619
216
6286
3033
9261
7087
921
866
6934
8614
17
8375
7346
4502
10586
6740
7586
3601
10707
3295
10008
3448
1783
5822
6479
4401
5323
795
3204
11398
4398
6568
9969
5262
11936
6885
6176
532
2470
5196
1697
4064
8374
11601
11241
7290
10545
683
4874
2802
2444
577
11385
5528
9231
8294
3344
11015
7732
5027
761
8008
5609
796
7131
6577
6075
4639
6854
10376
10226
3898
2874
5916
8200
12256
10420
2057
5795
5426
8961
7028
3755
455
6700
11867
6312
5224
10950
1041
7747
4889
6338
173
6647
169
7286
9051
9124
10346
11600
7797
1272
10103
960
5608
4738
3208
2771
883
5728
6323
9448
799
5640
1655
1730
3133
2991
9979
6234
9447
2910
7768
3852
7664
9239
9311
7660
4819
7482
3387
1160
1479
10101
11072
8455
5230
9717
2769
720
586
6950
9885
7301
3680
4672
11825
7297
7838
5261
7771
1147
10394
11438
2069
4755
10490
8565
12031
4682
4731
5473
3544
1747
11950
8772
2807
11890
1501
10401
10994
8132
2390
2684
11912
103
10275
10876
1626
2473
484
6504
9599
9099
11245
11821
2183
9084
3643
9575
4115
6393
5378
291
12158
6814
2447
12037
9620
9065
4046
1472
3576
4705
11048
1795
5674
8492
6377
2864
6666
1255
3570
4730
2019
8159
578
10137
1511
5748
6973
6965
2459
9833
9734
4074
11518
5786
2993
10374
3520
9027
9004
621
6935
9481
9841
10072
11768
8183
3485
2221
265
833
10903
6478
2677
1285
1608
4375
7181
68
7499
6613
4184
10607
6578
6978
9186
11822
11092
1396
259
2189
3910
11906
7422
1671
10414
6131
6383
756
1201
11687
9482
6903
10667
2215
4400
4149
1744
10731
5688
9549
7614
4724
694
4382
10413
1807
9722
3107
3115
3858
6673
2948
8443
3780
4081
6084
6086
3884
8351
9624
9116
5792
6896
4250
5377
7809
8546
10772
9176
11819
3441
5924
11957
1463
10182
1237
5461
4722
10846
9329
5156
6834
10671
8992
8391
11647
7800
8709
7363
6592
8627
8207
2124
7403
819
11514
4105
10930
10489
2928
6681
8933
6348
9295
1670
7872
1061
6179
4190
3060
1254
952
4867
9646
7801
9967
1118
7772
6594
9128
8327
1718
3955
8473
11468
2455
9034
4419
8833
10794
2859
2788
6908
11239
1978
2620
8603
2319
4031
9625
10734
1056
1146
7649
1937
4643
8663
8484
7105
6462
8657
8480
8
7464
3746
9148
11379
7696
96
1459
1082
6025
426
10740
1883
8740
6690
2627
4450
8713
4513
6435
10532
5321
11743
979
11851
1042
2085
10874
3021
9202
1592
8336
2619
3375
2631
2742
3048
9587
5050
3469
582
11894
5403
5651
10980
11511
12081
2992
3
4779
410
10210
11578
9628
4168
2884
9507
263
1983
7338
439
8482
8778
5683
8263
11753
1107
2913
7923
3883
88
3231
11099
4617
7502
9402
1768
3881
1043
8001
274
1281
7103
2391
3386
4602
9303
9053
4329
8550
10068
3413
10475
415
6326
7865
8414
710
4308
3707
407
8886
10082
3315
7107
12058
4191
10898
6691
4772
4676
6757
1523
3314
1110
10059
1406
6679
2932
7135
6925
8560
11343
11290
633
8383
10566
6372
6425
131
5297
4004
9643
774
9744
3857
469
8784
11184
10183
10687
12166
5553
12254
563
1905
7300
6851
7553
1576
5361
3128
7676
11140
79
6703
2474
4449
3355
4884
10962
4622
5545
2954
8471
12015
1904
9822
1851
4328
2901
3492
10119
1145
4111
6386
11084
8493
852
1494
7635
3101
4217
1805
4060
5008
4900
188
1123
10285
2271
5747
1594
10416
500
8715
2412
11292
3859
590
5684
4029
7132
4519
2075
5431
3017
9920
777
5157
7303
1194
10074
11366
8931
9307
3131
7334
1113
8256
6946
5062
10133
6108
3437
9801
5665
565
8446
1803
8362
6997
1642
5894
4077
10632
8797
6554
46
1149
4822
8059
765
3942
3886
1566
10154
6159
5259
10085
5171
11020
11940
2655
1011
3026
9589
3602
6224
4714
11037
6651
7381
2439
10403
11873
10509
11449
10192
1345
1444
10891
4960
9830
80
10521
2615
335
10938
6422
6444
1572
8883
10619
879
8539
10469
1509
1896
4785
6909
7966
10076
1845
111
472
9750
8893
7067
5138
8450
10196
1183
9626
3247
6300
2507
2108
3405
11643
6557
4317
3617
2927
8995
3702
3463
11577
5322
11330
11164
10505
4949
5076
11576
4609
2882
1193
45
10033
9939
11161
1578
2303
5022
3509
1584
4128
11287
10460
9039
7053
5799
7187
315
10514
9807
10020
9568
2328
1624
5601
10697
5421
7120
6223
4083
1071
10060
6149
5844
10178
8674
409
9296
6085
2818
576
10942
9871
7503
713
4209
5511
1087
9471
2335
4176
7076
2405
1454
11035
2876
4100
881
1710
3219
7484
11177
4913
2777
2245
2613
10664
8975
3323
6912
6955
6203
7433
1597
6939
7191
6455
8844
3724
2628
11055
1180
6005
1911
2955
7840
2214
7283
7284
7453
6178
5009
9985
4553
6625
3264
10820
6206
12029
1691
5120
123
10338
1952
10501
10144
3282
7680
3305
10900
3468
6277
10929
10855
11368
10241
9096
11980
5234
6389
2680
1891
11090
7046
295
8119
4695
11761
6428
1785
9415
286
5470
8316
1758
6463
1284
4924
5219
10354
4219
6253
9950
6192
4058
9006
549
9630
2673
4418
9558
11156
6650
5070
4580
3790
11699
12162
4515
4299
5931
2377
9388
4048
3334
7030
5903
5501
5865
10826
8722
4972
3146
10559
1303
8157
5858
3465
5517
4868
8240
9819
6698
11321
7704
8377
10255
10349
5221
9720
6684
5735
3169
2813
2861
7868
467
11749
7677
6958
9293
106
7879
10828
4202
6847
411
7816
6994
10884
2512
5902
6535
2981
9021
6280
11613
4708
11065
4679
11271
4838
1862
3585
9248
5035
2360
7781
4093
4721
2406
29
9121
4474
3316
6624
568
12213
5860
1245
5632
5773
1458
9050
1835
316
108
7070
6987
6672
10816
4351
10024
4844
3997
11994
10549
6341
11579
10234
10386
4023
12003
8313
4872
4414
4641
6306
3635
973
8796
9818
7168
7359
6620
10190
6167
1374
11718
8655
7308
4862
9962
10
10149
11905
1426
9902
8368
9779
718
8193
3445
5933
11339
735
4950
11836
9253
3562
2140
4606
7251
909
8270
496
9350
10299
5533
8420
7173
1206
9876
6008
5857
1195
8451
5652
6662
9478
6378
2995
8149
288
8129
5614
8268
4671
8255
6208
388
836
9020
9271
280
5419
4649
3412
6113
1112
7149
10550
10258
10066
3689
5617
4257
267
10264
1598
3954
8167
11656
7189
7242
7752
5145
5028
10657
1379
9691
9656
416
5875
4412
1962
620
1703
6562
5862
3752
3000
11556
8394
6258
2516
9410
1190
9327
6271
12179
3467
5641
4246
8918
1506
3887
10620
5298
4464
12022
9342
11956
794
730
7450
12138
5173
3404
10104
2626
4102
7153
1745
3708
8464
9255
11962
3307
2675
1199
9883
5998
4119
5636
2952
1889
7420
6260
11875
32
8282
7411
6861
12153
10496
6347
8773
8892
9544
5294
7814
5441
9649
11736
3928
10941
1486
605
3821
11413
1533
2651
7376
2894
9619
8211
5702
1330
11535
957
4635
10733
6940
4148
12052
1660
1026
6032
3207
1247
9197
655
623
7749
11808
3688
2199
7884
12065
12094
10654
9362
10859
2919
8126
2625
9103
3027
2996
1746
5250
10970
3094
2457
6104
10672
76
12059
4685
8235
2698
4097
10736
5245
2260
1775
10904
93
2858
8348
8852
12149
7887
714
1076
11982
3705
10680
2015
1885
9120
9144
5712
6061
3946
1488
5304
3784
11301
3621
9238
2759
9669
3206
1437
1233
185
7476
2465
7762
5537
8095
1297
3111
6180
4560
449
4256
4092
7733
3660
7268
381
4215
1155
5584
5328
5367
1728
3014
8618
2425
2727
1253
4536
3458
2503
5149
5723
7018
8296
5216
5900
5180
1612
5357
2191
4049
11654
11454
9974
7965
9033
7991
9821
530
7238
5113
10189
11995
3369
6706
8249
8544
6181
5610
3991
11128
4962
12160
144
3366
4902
8675
7628
2755
2492
5049
7188
4618
8741
10436
5477
9855
2889
6158
4341
788
9420
3068
2676
6533
4754
2030
5006
9309
5896
3684
10833
431
7735
1780
8909
2974
5740
349
9736
2909
9899
42
10977
981
2312
3842
7118
5635
3079
5826
4871
9040
5183
6880
10102
7709
916
5318
6717
7223
11424
1616
2846
6266
11409
6964
11951
1833
10631
4608
8858
3379
8385
8834
782
591
1156
1536
6883
7741
10608
7688
6648
3090
2401
9999
5489
11868
5032
2152
8511
4394
5990
9606
8997
2816
4764
9666
8904
4907
6189
4509
11382
4123
3100
8950
9593
8986
8469
9073
1731
7402
11669
11214
11795
1870
2804
12218
2211
10328
11590
168
11762
11711
10157
10113
9224
5360
2107
5371
9282
3753
3529
7047
567
6888
11812
2367
6865
10570
11846
6608
440
2018
10329
10070
8233
6414
11319
4540
12049
7905
1224
5928
2592
2753
6210
4894
4601
2691
36
4525
9487
7348
2249
7060
3938
10474
3181
6931
9867
9926
8147
7977
5011
3984
12216
9957
1360
11209
8710
486
4526
5639
3421
6818
5453
3703
637
4832
9429
3613
8062
3646
9320
9104
7012
12230
11909
10625
5493
167
1915
9611
7019
8936
7675
11495
6576
11924
801
2138
7391
3351
742
6510
7210
6822
11019
10130
3678
11460
4367
3963
9321
2847
9608
2478
715
2957
6433
5556
10003
7481
3244
10484
12184
2089
9378
10371
4963
4265
1834
7332
6452
9693
8935
11470
6443
3833
7452
2485
5079
10937
12111
3399
1886
3003
23
4634
9118
1309
6029
789
3411
5030
9755
4850
2514
8018
4035
8615
9954
4743
3574
6194
1957
9485
11710
10427
10411
10863
7066
6496
1395
9209
7535
5706
6886
12192
12198
8084
7354
11036
7306
5872
1226
5467
3286
12016
9973
4395
6705
8598
9826
10515
1310
4718
3798
4934
9383
9301
4007
10065
1822
8813
1315
11163
11569
11528
2315
2826
10366
6826
2595
9753
1339
4410
738
965
252
4989
8736
2098
5479
6109
10661
872
4610
10224
8897
12191
11545
10552
3781
6066
8067
6080
9729
6162
10781
5117
5746
10585
9832
10244
5697
7203
11570
3921
8803
12025
447
9798
56
3449
2855
4165
2986
476
5871
6913
5523
8607
7100
7307
8079
6117
750
10751
8444
4981
376
2458
10660
7769
7775
9233
8649
3837
8055
12247
3352
5444
5411
9527
2400
8009
7412
11345
6902
5386
11684
8025
9584
5912
5459
4640
3989
227
6817
2317
3482
11329
5464
2648
1508
11331
11441
1684
499
7034
1699
1877
11333
513
10479
5399
8683
2704
820
6200
9364
7538
4619
8431
8109
474
5950
10984
3919
11380
6270
2916
3608
8628
480
8769
10836
5562
2577
11091
5701
4768
10801
8739
7068
6076
7924
7794
1349
7699
5478
10714
10425
2922
8828
7222
1606
5225
3031
2762
6752
11531
3148
9384
1659
7219
10079
1446
4139
1020
705
8401
1866
10580
3889
9060
2122
2574
10628
1921
2956
7110
6824
6379
7899
1419
8499
9595
5257
2025
594
1558
8178
9045
9360
10476
4691
7928
3694
2058
7847
11052
4605
6058
11755
7050
7197
12185
3894
9427
10239
8496
535
9644
292
2836
6702
9462
2870
7811
5340
8459
8639
4792
3692
5405
1318
7920
7852
10905
10692
9229
12115
12168
4999
6735
5676
11172
2546
2228
8885
6201
8077
4975
3284
7077
9097
11365
356
12177
9149
12044
11038
10461
837
12091
266
7599
2006
7401
4132
10485
2362
5380
5181
10083
8959
7277
2899
1890
11703
157
5703
127
5595
7874
1441
5667
6947
7588
2748
4959
11723
9792
11054
3061
9763
6291
10875
10261
1057
1963
3125
3822
7325
1127
6853
6067
9661
6123
4288
9761
8288
7808
11446
8579
1543
3263
11471
4696
7798
2268
4720
11876
5268
132
6758
4863
10359
603
5174
11266
11845
393
11208
5400
4015
5155
6375
9598
9965
5460
7078
5514
4604
181
2277
8596
3234
8719
7589
6775
4112
8440
9279
3948
401
3902
3595
1631
3652
7807
3891
7248
9043
11594
12121
3403
4794
6621
10404
7383
4220
8612
11648
7182
12056
6243
6325
6398
2067
4667
5643
5492
5169
1599
5019
10928
1385
12009
7434
9315
9052
1405
4991
3275
809
9016
2029
6153
2650
4439
3024
12144
8254
9541
5045
7399
1702
4504
61
3971
5140
4773
2094
5151
10347
1880
3370
8694
10270
4269
10604
8641
2287
7037
9129
7515
4665
8347
6489
664
2906
7969
1046
10821
2404
5425
8093
9180
1568
462
743
222
12110
8690
8030
625
3656
6805
2188
2177
9317
3499
9812
6022
8983
8949
438
4520
5623
353
11688
456
9835
9616
239
8165
7298
230
9565
10127
8231
4407
6550
4793
1018
7271
8721
8331
1760
5725
8622
10765
10400
1103
11108
11908
8153
4415
4226
3251
8530
5526
3063
4929
4344
11243
2947
11230
11316
7205
3431
11759
4742
10675
11101
4789
9868
10308
10032
1034
2264
11406
8222
4205
6209
906
10670
8761
368
10565
3593
1415
7310
2286
8602
11702
12154
8671
5437
114
5800
3873
2900
1721
8726
4562
3184
4342
1824
3080
10313
3023
4740
9862
1901
3232
2320
1918
5418
5821
1569
5960
347
1242
420
11567
9258
37
9854
9972
6515
8830
10689
1031
4339
10525
4320
7292
9825
10172
6639
763
4974
10897
10171
8692
10843
2484
6107
1222
10730
8387
2134
2423
4098
12105
6929
10799
5680
10456
11359
10497
4521
1575
509
10203
6458
9182
2304
4638
4010
748
4193
11785
1259
3077
5992
1888
11815
3813
711
8928
11183
3896
11039
8166
1372
6537
712
3329
8051
12071
10118
8163
12033
8908
11798
4392
7275
9266
1482
1489
104
10213
1794
8515
1821
2386
4315
11073
4156
1741
1658
212
9564
4508
6275
3058
323
11551
1097
12090
10043
1359
334
10571
3110
3474
2840
3691
1613
5837
792
233
6890
5382
1064
209
9371
1327
5692
7633
5042
4094
10263
2413
10744
5809
11887
9470
3542
3872
871
10317
1263
1618
7130
8314
11932
2414
5344
7075
8516
1220
7273
1765
4561
2456
8098
10909
2001
1513
6388
4629
2801
4802
7143
3582
2523
8937
6221
9395
8116
10646
9351
3078
5267
5372
6699
11854
10547
2110
5563
2375
11886
9365
1328
11981
2308
11195
3546
3527
10382
7258
5677
617
4047
10277
5227
6248
5955
9141
9417
6747
7861
2652
10077
11976
745
3541
12014
3745
2004
7731
4759
11721
3047
11513
10857
1336
8899
4607
5497
6772
3095
8524
3285
11754
7293
11487
3751
1313
4700
11893
5721
2903
11614
7336
3333
6597
7528
6027
3053
9085
976
6112
8370
653
9912
2269
5381
8128
7324
8111
7159
8625
6182
7826
6821
8122
611
4766
2114
4881
5805
12211
8498
3166
2602
7021
511
11395
7580
3015
4441
4463
8635
8074
9136
8066
3704
520
8573
8141
9480
6418
1092
8847
5957
6760
8568
12150
5838
3771
9192
1109
11775
7634
1038
11281
6693
20
9434
5719
4454
7834
6240
4851
934
11987
6391
11069
8397
1726
394
8423
6571
1737
2165
5559
561
3069
12148
11300
9723
1162
6399
8198
9257
1729
1527
9688
842
2930
7235
58
6227
5527
2865
10450
6835
2291
6345
83
7672
11507
1945
9457
1649
4477
4118
2724
8083
5775
414
5549
12050
2450
9745
5168
4385
9536
10715
10463
3870
9918
8171
8856
11658
2907
8823
11921
3538
2133
1897
9291
6831
11472
9952
1817
11969
3949
337
2072
10615
8624
5496
12126
2815
5061
5802
5146
8857
766
3782
5220
1144
10014
2510
4952
2273
10719
7953
6366
4484
4292
1672
6186
7990
4055
5278
1808
2275
3761
4698
8661
7949
2045
11199
12061
1295
5899
3952
7820
8221
444
858
841
4684
8373
9459
994
6606
1554
7539
8704
11547
7344
6459
2513
2835
7109
2233
3050
8201
400
11945
5980
11791
1023
3298
4359
11709
12097
5195
4080
8101
1550
1009
7645
2737
648
6322
2862
4791
6522
550
9205
6400
211
10245
5922
5964
9387
3543
5013
1438
2515
2868
2434
10989
6984
4233
1314
7785
5790
3979
12
818
2784
10606
453
6545
11882
1656
3457
10459
10708
9636
10634
2908
11021
940
7856
5840
11119
5114
11720
8757
5568
12257
1400
30
3677
6429
8887
7237
6727
1108
10752
11086
3229
12028
11917
9559
3319
7146
7040
7439
6676
4954
9166
1563
8494
8487
3071
11733
11686
12036
4420
11968
11221
7936
5440
10644
10327
11928
2213
8943
11445
9780
5816
2111
4457
11106
11269
4808
11071
9495
5123
6282
9837
7652
7445
355
1429
5936
8670
8866
9886
332
6580
11456
4224
964
120
4352
5329
3281
9522
2544
7322
10175
2885
8216
2178
6415
5106
5653
3123
11748
1544
6558
11661
8794
5981
8274
6492
945
7793
6053
6311
11671
10116
9354
1561
11667
8731
6351
1095
9934
3287
11483
7195
2605
1392
4680
10599
752
7319
3737
11992
10464
3215
6464
9805
1777
4113
1770
10443
4687
3022
4228
3012
11181
10841
9015
8855
7180
527
6188
11240
4264
4262
5577
1919
701
4397
4480
9707
1298
1352
2926
9531
1287
4693
10036
6380
6110
3697
2013
9443
4373
7689
5861
2147
5770
7918
5880
6480
7442
7615
11233
4870
8977
810
6472
2073
8538
9001
885
1477
1790
8600
2008
5890
682
3895
9703
11967
10673
57
8634
2399
5771
11803
7698
8572
7020
1468
1416
7281
2358
12129
5824
10449
10390
11067
3869
11760
7360
8620
12072
10086
1055
2281
5716
1924
11066
1075
1115
3936
3533
6784
460
3032
4207
10915
1452
2149
319
8364
1922
8518
10886
11818
9896
10208
2129
5972
7654
7945
1052
5993
8417
4067
1456
5513
361
12098
3145
5572
8454
6930
8537
9866
7607
540
7915
10378
6551
11057
754
6641
2003
2542
5943
8990
6485
4271
100
6961
601
10926
6454
10837
1044
9501
1557
1487
8968
11265
8090
2115
10890
618
8759
6843
5125
3396
1600
8412
10465
1615
1752
6013
2083
5359
8805
8631
6927
9161
675
2545
6569
10201
3999
11644
175
5739
3609
10639
3787
9002
2225
9545
6069
1126
8955
6062
2441
1322
1603
4210
9553
11695
4065
7655
11457
9733
5324
4071
1507
1559
5579
11501
4830
9987
5886
1836
1354
6498
9605
10810
8817
4032
12112
8869
8660
7825
2251
1025
9554
5709
5414
4716
3397
313
7716
6018
7472
9375
4978
8072
2970
5532
9475
3885
11780
9466
8576
10491
8426
5176
9219
6130
9586
1840
11133
7937
3673
5396
10611
12232
3320
2272
11512
4254
8253
847
9404
11369
10701
9909
7744
4597
1417
10259
3848
604
6070
2078
10742
2311
4343
11220
1982
4466
199
485
3270
2823
4551
3245
4453
8360
6214
3749
7792
5958
10005
2794
6536
10023
8470
524
947
12173
11933
1280
122
4366
4747
5407
2302
11051
9221
1005
3460
4674
9188
11004
3055
3566
6438
2132
8730
5646
8140
229
9699
4001
12045
8608
6889
3007
11014
4587
4221
10504
6866
5785
2750
6590
6001
4376
2944
6712
2718
7015
7194
5833
11283
11944
6596
4161
10446
9440
6020
10087
6503
10761
10853
6213
1017
10120
7562
1928
350
6874
11450
9226
6858
7691
8411
7598
564
1582
2175
7362
8127
3933
2707
12108
5940
3535
8922
8673
7054
3739
11527
821
2063
8280
81
8824
2697
831
4574
3826
10764
2833
8035
11388
6611
48
8047
4898
7250
9373
4921
9216
4095
2689
5885
10659
11418
2373
7602
2758
7585
6808
7492
11712
3880
8014
5163
11242
9893
6842
3945
9680
2164
2886
5264
8872
516
9746
5424
172
639
5098
6512
1143
8829
7428
11744
1832
10834
6392
3686
9300
9072
4537
6216
7630
834
2486
9169
9727
6850
8369
10804
7058
65
10503
5034
8332
2024
6442
354
6887
4762
6220
9933
8462
6505
5007
4568
3127
4864
309
4842
8161
5920
4354
7796
5500
9597
11420
2583
5397
2770
4812
8840
8349
5932
3209
7049
3905
9802
11794
5883
8134
2379
8956
6501
4169
6127
3428
4421
1101
6290
5292
11694
3250
4409
4140
3557
7152
118
2022
4598
11387
4896
10621
5749
8810
4681
5023
10052
4273
6795
87
5165
3382
11526
403
3350
10206
5087
8654
2241
8750
12169
1027
11899
6157
2436
5935
8284
1278
12107
11396
1425
6911
1502
11943
10499
10044
11659
678
9523
5828
7073
6820
1070
7091
2480
10186
3392
1099
6754
7855
418
7302
5286
1947
3336
2299
6836
6840
11986
208
7571
6174
5524
11913
528
779
722
10539
1860
10393
11724
11076
11110
1992
2332
7745
8022
10304
3459
8752
5612
7007
12186
4518
5491
9970
10212
257
9338
11979
10558
9794
7940
3625
702
3189
503
10806
2556
9270
2248
372
4052
3937
12131
4076
997
4332
6678
1176
11878
551
4840
4372
3497
5369
5020
9165
9940
8104
6832
7516
8405
693
2533
3443
982
9971
11539
4222
91
2266
8791
7375
7475
261
3337
7821
9741
9787
445
3555
2194
6768
7172
2867
2526
11856
5847
8366
1168
4144
84
3149
10298
880
10431
5689
1467
10932
7225
7055
4326
4044
4137
3039
10111
10842
5226
579
10399
9023
5332
9853
2467
4157
6021
413
402
4428
2084
3057
10645
164
10931
4302
11176
11834
3317
9824
3934
1847
1334
9423
753
3064
706
3491
4573
9340
5071
3151
11466
3799
4022
1074
8697
3438
9432
10953
11299
2429
246
3815
5727
3632
11294
2262
2246
835
5064
432
5335
1173
5714
4656
12069
10743
250
5144
11996
9520
8145
5379
3407
2729
12139
433
9286
9287
11136
11615
7666
5952
10696
4002
8063
1332
7917
5434
5531
1443
10562
5206
4310
4899
10009
6384
8287
9679
2569
10584
4277
3666
12089
2446
5969
3657
9891
3172
1223
10286
4166
544
1204
10365
6334
11154
2637
11872
7613
10194
7474
10685
877
9942
196
11948
3383
4379
9056
9749
2997
11784
2571
5905
10573
11618
11745
4969
4711
4163
5186
10265
9212
2682
6118
2508
10211
1510
4314
10533
1244
10455
11751
10802
4121
4995
8890
6962
10095
12001
254
9247
4511
9526
5159
10117
759
654
7600
3401
1420
3044
2830
8292
328
253
7658
6098
4377
5092
3019
3029
2636
11479
6765
3018
2945
3659
8681
7349
8023
2663
6517
1362
11488
3481
11810
8991
10383
7457
5350
7853
8299
2880
3381
1302
6302
4957
4836
6152
7447
7090
11160
942
3235
3257
9284
9079
176
435
7803
308
1565
3964
2135
7255
10758
4977
6595
10029
595
10637
4625
8380
10614
2623
4572
9298
11515
231
179
737
11786
5851
8982
7712
9513
7728
5859
1321
1995
6408
5519
9059
10305
800
9512
2086
7436
69
6412
8304
5170
1680
377
1469
2603
4181
9657
4505
8049
4230
3091
2726
477
1329
2283
3732
11827
751
6148
8400
873
11145
11496
11075
4564
1545
739
10493
2683
9405
11167
5121
8114
3518
5364
2354
10345
5787
773
5589
10800
5200
9698
641
7621
6800
6187
8034
4309
5204
865
9193
11732
7410
12124
10640
11224
8248
962
9095
8260
12119
5576
3309
2166
363
3723
2825
7157
3597
4726
546
2940
471
1641
11255
3338
5516
1172
7199
5273
5376
10530
7201
6884
6627
8250
10483
1410
7261
6507
5587
9123
2694
815
2131
1797
4575
5190
3122
5365
6663
4275
11340
3089
6827
10385
12242
7534
5253
237
1532
11543
5756
3410
2831
11159
1535
3879
5302
9376
1299
5484
9285
1480
2793
7313
11991
5091
2329
5948
5662
6954
11083
3661
555
4825
1163
7507
4715
397
9528
7959
10783
11165
7925
6461
723
300
10293
10363
4294
9213
4185
8951
6657
12057
3142
6191
3205
4955
4582
11098
11737
10847
7335
9638
1152
1212
4503
10061
11897
8939
5427
7755
9622
665
11043
642
11326
3767
4272
5657
786
2857
3202
7257
4187
10827
10166
4824
2905
4626
9910
996
6357
8771
7488
8169
156
7942
3085
8543
1552
7642
6951
7713
3795
495
2321
6423
11274
151
7148
9318
6660
8384
1738
3001
10870
7500
6983
11034
10754
2883
3720
10796
10993
6310
5471
5965
7671
2276
4823
4704
4461
343
6301
4136
8846
6346
6421
2223
4196
7926
8061
8510
5081
7370
6723
11198
4734
6856
1465
4593
2234
8695
3903
283
11355
10409
10510
8425
7584
4151
8753
9786
2121
11910
5012
9445
6252
3161
2630
7341
10432
8196
10995
1203
8318
616
1926
3114
2641
10988
2562
6161
2728
5803
9728
2126
8948
10098
7111
7465
805
4694
9511
6315
3140
4280
5338
9251
566
11833
547
26
7469
3918
4486
10063
5398
8475
6064
1221
7532
2548
11609
437
6586
10372
8763
1861
2699
8559
9215
2481
6014
10334
2706
6601
326
5135
5325
2499
1004
6385
6829
4011
10959
534
7958
3960
585
12130
8531
11429
8836
8295
491
7356
7211
10957
7108
9621
3548
9923
1916
3185
5769
1910
8052
6387
1133
7774
7309
2518
8816
1317
4368
121
9390
2449
6081
11451
2601
1522
3484
2173
3283
4554
3605
10564
9422
5835
11113
3768
8903
9838
4038
3502
1407
4631
8156
11938
4935
7364
12066
2579
8953
3269
11717
1867
5550
12152
8279
2521
11989
1820
6729
51
3888
5187
8225
3577
4565
12221
10089
6417
1858
7624
11689
4961
11793
10035
8809
11306
5198
9147
425
4284
8339
9302
228
10956
2741
5137
10722
10838
7367
2921
5718
10812
5583
10331
3653
10642
6175
1128
7656
2331
2208
7572
10907
7859
3153
6697
9607
8745
11779
4990
2374
1632
8976
2298
7636
4252
12143
2721
11275
9778
6319
1736
6343
9875
5736
10939
8962
5094
8071
8456
8144
8267
9960
2550
9249
9469
938
10770
10862
8099
11922
4852
2644
10713
3165
3639
5069
6363
8019
2061
4645
6470
2812
11502
10587
11852
11017
2549
9915
7288
6466
9748
4174
5836
10732
1024
4848
6050
11350
1951
7514
351
9781
7289
5480
9623
4797
5863
3662
7578
4657
9614
3150
7198
8718
4813
6092
8644
5143
2939
4510
1340
11489
1391
7701
6967
9640
10848
7328
10502
1583
1412
7366
10728
2256
9081
7998
2212
5603
2622
9436
5417
4938
8957
3624
9706
4267
11007
463
1754
6922
5638
6634
6077
9772
378
3106
4803
1335
10786
11885
2716
7536
10158
7632
8085
7305
7681
1811
10115
6923
1894
9049
6598
7662
11664
1189
5194
8205
7093
11475
3454
11800
11061
6041
9030
10972
4613
3992
11337
1030
7008
2220
3774
10924
9725
1755
10122
8963
8593
4327
10471
110
11627
11361
5731
2917
10702
1515
11581
11295
12235
10303
2263
6810
11927
10408
10284
893
1490
1850
9003
7612
324
1215
2933
4689
9070
10869
10520
11253
11923
1129
11611
2918
9705
3084
4588
4304
2795
5994
798
734
6128
2244
178
8488
9290
1174
9563
10735
1831
9906
6475
9843
1781
3201
198
10053
4087
5193
548
3339
11565
9066
6867
11231
2532
6145
2314
9057
8723
10105
6004
66
5127
4712
5214
3260
5033
2572
8382
8819
622
1681
787
3332
6991
7487
10723
3280
11068
11178
8303
7104
10601
515
478
9913
6434
8775
2647
10045
6339
8439
1033
7072
2598
6244
9880
8974
8305
6860
344
5521
7530
1871
2977
10538
3986
11781
2888
8241
4623
4818
6844
220
11263
12002
7267
10198
7700
6147
6607
4016
6193
4248
11215
8765
10271
5868
6521
1264
4241
5650
6369
11138
11584
12087
7089
10421
2881
1677
6486
11376
901
9363
2296
3402
8781
296
10767
4153
9955
9924
27
9663
9075
3829
8495
3248
8046
9704
7810
2580
6637
9112
11638
1370
12086
9281
11862
5551
7458
5254
681
11410
4775
5422
3159
8910
2987
4908
1882
6114
8490
1940
3296
3534
10062
3729
490
9139
1181
1375
5014
7873
6875
626
4758
11632
2112
8466
7890
6225
1767
10626
4180
9278
9718
1462
2887
6957
684
4539
4514
9421
9639
1366
3916
12021
2639
11599
5602
11064
5729
5730
7565
8479
2300
4787
2938
5659
10845
10613
7567
1979
5979
3803
4534
11722
9919
9265
10750
9194
4800
2280
8665
6247
4469
5133
7767
998
4130
5266
8643
12026
1784
3182
10623
494
6720
10622
11372
2860
2038
4041
10256
2897
366
849
7837
12095
8091
8184
2653
3503
8449
6095
1541
6273
10865
322
2031
7907
7145
813
2528
12077
6730
11272
11474
5274
1079
2226
9571
11194
3515
2705
9170
6403
1164
3261
7220
8917
1450
6126
4229
3862
2936
9898
3917
5487
7384
9982
1723
9359
10951
6778
4056
11662
2999
10512
11050
1231
1514
2313
8981
1451
10289
8746
10795
10452
4321
8310
838
12156
8185
3899
10417
3567
11356
5452
3087
8137
10596
4546
4692
1714
6926
4270
339
10557
4086
7726
9966
7405
588
3365
2670
5515
3589
34
28
2395
6745
11582
5506
6918
2170
7759
7042
889
3878
3322
11520
3514
6664
10220
5673
8107
3733
7095
11606
9330
4528
1654
7784
7593
223
10569
6567
6688
5982
4239
5882
1590
10835
3256
10885
7200
2181
7549
9158
7414
6165
10737
7466
9498
9145
4817
7233
8273
1209
6499
421
10721
1706
1158
2306
273
171
3956
5606
7478
4865
7333
3188
1725
6473
8358
1564
1782
843
11459
6733
904
3494
11861
7724
1547
11188
2080
11831
9178
12073
3985
11430
7921
8728
8993
11419
4677
3820
5209
2646
6719
9386
7819
256
9288
4350
8650
7213
5923
6365
2155
10544
10894
3715
4057
8970
10162
3622
5648
6734
3102
558
10949
11461
1436
507
5275
4472
1869
5663
6728
5930
8563
755
7754
2339
4050
7944
3836
4386
7885
7038
2118
10844
729
501
6526
643
7508
1539
8701
1211
9044
11620
672
4915
6106
6520
3377
4476
5615
10773
1464
4745
10933
1192
3793
1872
3590
6360
3158
9897
505
243
5678
506
10022
9543
6682
4717
6222
6959
8774
8324
1773
6495
3010
7407
10012
797
3618
2381
2829
11235
11425
11898
4633
312
746
3569
790
2476
6120
10092
11434
2570
5753
9612
10597
6448
5599
7877
4355
2163
9000
8827
380
11155
1292
1912
6899
599
3892
4141
5540
1652
7900
9658
1893
1944
3395
3388
6502
4362
11978
375
1966
3957
6195
11895
4423
5351
5696
1243
8060
12007
6798
7802
11713
1471
3346
4522
2657
2853
4506
11622
11010
11985
4045
4062
5326
7839
9240
7246
4306
5139
8558
9441
7978
3990
1049
3823
8065
11696
2035
4039
7912
7841
11469
1972
8283
2099
1499
5205
3512
6575
8587
652
170
4085
242
9671
5798
10415
4371
1644
6355
5594
2756
7968
7995
9590
9211
8409
5231
2076
4103
11725
3996
4801
5968
7316
7393
8807
8507
12262
11491
9922
8814
5849
6948
6762
10191
4661
4078
6054
10974
5974
640
1270
6920
2778
7952
4932
6060
1985
3861
3480
1534
325
5764
2338
6998
3980
11734
12245
4054
2237
5229
10152
4571
11858
5474
10195
864
8376
4942
2253
6010
9895
371
8799
11624
609
7139
12209
10681
8545
11958
9578
11830
9234
5830
2364
3213
5456
911
11078
10690
3789
11698
10323
5581
11492
8972
8574
5060
1423
12023
479
662
6756
6437
11536
9953
2988
1119
2776
4535
12125
8703
8873
6349
10135
9055
11490
5573
6135
5269
4427
10240
5247
7217
3981
8839
11675
2893
2669
3977
8037
279
9672
10377
9061
10807
9294
5197
4664
1694
10918
5018
6133
3479
5554
4416
11412
4155
4883
5807
3809
10698
10561
9774
4296
11467
4683
10315
9355
10610
5593
2209
9665
8861
5402
2410
4563
184
7252
7315
4516
2350
553
1397
1384
9754
11286
5856
4903
297
443
10779
5215
11258
7551
2077
6017
4751
10237
2229
2842
2537
194
10164
6636
7497
817
3367
12017
6553
2578
1131
7044
5505
6761
6802
7276
10612
320
1371
4042
6956
7773
907
305
3950
5529
10788
10892
9082
7512
9236
8664
10292
926
244
9533
15
143
5983
2363
8994
129
1161
8522
12008
7822
11335
7791
7606
5458
9460
5308
1876
2488
7176
4479
1182
2525
9552
1170
10651
2182
11705
6877
6792
8998
10435
7750
3371
9931
1859
7337
7209
9068
6781
1878
7342
3588
8334
3121
387
1311
1032
9810
6584
8192
6382
6725
7983
10442
4936
931
7471
4019
691
8015
5987
6364
1909
829
3498
9263
2081
10917
11574
44
3939
7955
10254
4319
2965
3969
1187
11505
8027
11249
9393
284
10873
6308
4159
3092
9592
4556
5555
6916
4323
3982
8054
3364
1404
3195
8404
7753
969
9951
6543
3734
925
11646
8902
4725
2843
2851
10100
11857
5956
519
10864
9791
4471
7780
4348
11678
9848
3626
1789
10146
2059
9256
7136
4013
6006
1902
8916
6215
4686
8298
4922
6785
7895
9581
9681
75
2345
6447
8236
430
4586
5483
7456
6405
11799
7608
10831
12227
9399
1553
5874
240
783
10193
3066
11959
977
4905
6264
9185
5695
2941
7150
8594
9497
10877
8187
11262
1620
5642
12252
2146
1801
2095
9019
7933
1357
9944
9048
6782
10243
7224
9413
3565
12172
10756
9232
1609
3096
4590
2415
2017
2971
6424
4125
5846
5375
12018
11757
3246
124
1106
11448
8029
840
6394
9648
5649
11218
3341
598
2123
5512
10360
9642
10444
9840
11850
5999
2197
4051
1216
3362
2501
725
7533
978
808
9813
1475
9201
9411
8269
4906
12088
11063
4930
4542
3962
11149
2671
7406
1235
1225
1764
8779
8011
7259
11362
7085
3217
5737
287
9983
2966
3164
11152
9406
11974
1657
1975
2397
452
2710
11378
10766
3681
6715
422
8638
5316
7025
657
3301
8585
2845
4066
9602
5244
1001
4198
2418
875
8604
6726
3847
961
1580
7550
7639
2206
4266
9089
12163
4231
757
4866
5406
5313
2284
9063
7001
10038
5507
5309
9187
4827
7640
7623
807
3907
6141
7779
9743
7023
1956
2445
11729
6969
10004
8699
10000
2402
8832
1073
10590
3398
4240
6524
5436
7910
10423
2091
4527
12255
1698
11911
10278
9551
8048
11805
1003
10138
11143
10199
8028
4651
11322
10968
6156
1485
11756
5368
9904
1411
6289
11564
11126
8118
709
8668
3603
985
3076
6169
9401
11280
6713
5077
4101
7722
2722
11537
1268
2462
8793
268
3580
4750
8092
7454
7795
7770
9022
2821
10985
589
11423
11006
7947
656
9943
9894
2037
9532
8871
3758
6845
6151
7931
2028
12228
677
9948
1232
5454
8012
9562
7881
8131
4856
8215
2432
8812
8685
4647
8762
7626
896
1611
10090
1587
6686
7386
8517
1719
7496
9664
3806
8621
9425
4701
3961
8191
5557
8013
5564
9515
10368
6087
890
7541
11030
4006
4939
9726
7695
5898
6173
9243
5819
12083
8432
2799
8760
584
3268
3932
4965
1260
8570
6199
6692
310
1716
7459
6009
2052
8532
4668
4298
6646
3783
1008
10223
2185
3623
11999
11623
11864
8678
8276
4834
4059
4756
9010
90
1987
470
1326
7279
8317
9850
2117
2937
888
983
6932
11633
9260
8323
10542
2925
11127
3214
5884
2341
11692
8247
9306
8727
9674
10041
627
8523
4947
5080
4244
7738
4765
1601
12013
1269
128
9799
10777
1711
4182
7299
8912
4235
6995
8460
2398
10964
9026
8203
8642
11029
1186
10424
12048
12006
11971
1977
5314
12123
4247
9709
915
1305
1096
3049
10156
6653
11673
1273
5698
6945
9938
2796
6797
1398
6615
3358
183
7627
4462
8888
8040
3563
9280
11386
6513
4567
9391
6603
9929
2656
10168
4305
1961
4992
4891
6138
5815
5869
8860
6395
11621
6226
9237
12229
8700
1251
3176
5072
3359
7559
10629
9505
8973
11013
3289
11056
10705
3190
1573
9214
1051
4069
11538
3218
8285
272
2042
4763
7506
7864
9878
1086
1473
7282
8835
12195
11244
2186
10854
4322
9252
9757
5831
11746
498
7727
8720
4709
8361
9976
4485
10617
3478
9353
3924
1748
732
2553
2463
7460
9071
8751
2662
8204
9080
3113
3303
6250
1344
10784
7692
1690
11158
8944
5048
8742
8261
3308
1504
11216
1806
3871
8115
3791
5217
12005
11672
1067
8552
11639
1717
2696
6451
1848
4512
9125
11320
2431
10684
4660
6622
3435
11693
7347
11498
142
8610
5586
10746
6992
7882
8272
6804
6749
6100
5290
7963
3409
1117
7685
1756
497
7582
7828
870
3357
912
721
2805
12189
886
11772
9009
10179
11049
1520
7396
10656
2746
8372
3545
314
1799
327
3757
9174
4204
5850
6129
5447
3129
7440
1996
9113
3968
9994
9701
1973
336
2764
9702
275
2985
2686
4620
6531
3477
11782
3558
5715
2809
11162
4861
2334
8898
5246
3416
307
3908
9319
348
5918
826
5296
7243
11651
9861
4482
8999
3682
8528
10266
2053
10658
11787
71
8257
6855
11146
11679
6751
9292
8786
11860
8239
5356
1666
7579
5570
8724
52
8113
6263
1445
7903
9463
12164
1695
2892
12259
1574
9195
3203
4405
1630
10307
1881
12161
5112
5708
5074
5509
10814
12106
848
2924
8725
8520
2877
6367
9921
186
3779
1830
7670
2959
7185
11325
9431
6904
5446
6587
1234
9634
10249
3915
446
9100
5839
844
5201
10775
8437
12122
10537
8168
2440
3103
10519
4774
8354
6974
6094
1294
7669
5518
11778
5067
3442
11134
9458
11399
2837
776
11914
11384
6324
2153
5558
4920
10663
8106
11641
11025
3136
10322
5462
8925
9930
3183
11942
7522
1943
9751
3199
9297
1289
4581
6335
2500
11663
10945
11704
9137
4106
7542
4126
10046
6933
11665
11683
3966
1879
10405
11397
9379
5457
8658
3587
10774
3865
2148
4131
1036
636
11682
7216
3611
4134
8076
1083
6711
861
5212
903
191
109
6026
4455
1942
8000
4331
10850
10466
5927
2040
10294
9190
9836
4878
4659
8395
5001
2775
7525
4145
2323
762
5921
2617
2411
1094
6065
7265
1546
4589
6034
11602
7517
6953
3135
3856
5040
7435
11293
5428
6523
6419
9453
3805
884
2654
10439
7988
8689
6774
10763
11303
464
1257
9676
2259
4274
7074
5192
5630
11879
6231
7382
5300
2202
10935
10121
1262
8081
7212
975
8790
5866
4925
941
5263
6582
4723
2387
11929
5021
7129
4391
5148
10242
6803
3221
3882
6055
11572
1610
10228
8744
3875
5953
2789
944
10914
1857
12212
4108
5213
10430
3255
7323
2690
8430
7389
4627
9152
1319
9275
12116
5162
8913
10333
9150
1135
4529
3475
3505
4749
2477
8237
8343
7086
9577
9509
4501
8086
12099
6336
8969
6982
7231
9143
1874
10433
7972
11571
5096
2904
7678
570
1448
3414
9887
939
9514
8965
8613
11175
5841
6837
8940
3226
11946
6332
3978
4383
5834
9697
9385
7845
3539
8679
11519
10895
9713
5681
2827
5780
3634
4996
1338
3262
7876
8862
6838
5089
5741
650
6039
2902
2258
12135
5395
10704
7082
9538
8687
3521
2730
8246
4478
5660
1596
67
2584
8209
6281
3196
11485
5327
9997
8124
7609
1258
11597
6350
7862
10440
7523
991
3504
113
919
2509
11529
165
6741
11455
12141
8863
4603
9025
10422
949
4594
9941
3770
2506
5107
2850
6000
11789
12236
8108
10306
4446
5794
9961
4460
10073
2505
9276
6623
1114
6942
10279
298
1675
3347
6170
2735
5669
9796
4988
11018
2378
7431
7425
8525
4325
4172
8557
4550
7934
7911
8142
8798
9808
2103
5336
10546
3759
9570
1837
10287
10180
11593
5710
9963
607
4500
7036
1093
8197
6718
8822
10979
4487
7707
160
203
6483
3940
8540
6103
4933
2934
1814
7647
2435
1230
10635
9695
3046
5705
7957
11842
2915
11118
7948
9322
7545
3988
4251
6111
6828
10720
9449
6204
3293
4034
2725
4290
4334
2552
3877
6205
383
11998
6879
7485
4753
4886
857
370
6539
10251
2561
3801
2640
5455
10630
4490
2347
649
6859
2781
8355
10468
10638
11773
7207
5944
8416
615
10340
2575
53
8756
3340
9304
1705
11095
8262
8223
1493
5876
12217
8344
803
4953
7743
1812
9344
990
2774
9629
2448
3513
8514
10282
219
2942
1288
3163
4678
2618
3612
43
7871
9806
10888
9803
3792
3571
12237
1503
8289
12054
7596
3439
1892
11820
11431
9305
5255
1955
11549
5167
4814
3575
6460
1505
8483
670
6491
7048
10508
10913
1085
897
3306
7581
8026
6239
2666
7646
3193
2890
6003
7739
9356
4739
2621
8878
6202
9464
9609
8582
5813
2
5970
2370
3804
1769
10419
10811
6079
531
10567
8181
10603
6476
6977
10925
10384
3120
11047
6259
731
3406
5991
6328
8500
2565
2581
10017
2607
11610
2104
11393
9804
11210
4994
11141
5057
658
4434
11642
3816
6773
11552
7260
3904
10908
6811
8845
3700
9372
1788
6314
3645
1776
192
8402
10540
5388
8441
4951
2687
4390
4927
5552
11588
238
11354
8398
6901
8979
12146
8879
5097
8877
9159
10462
3552
12224
3360
5628
7751
5783
4507
10358
146
9054
2294
7178
8826
11617
11828
7081
4733
4384
8410
4545
596
11135
8640
5164
11202
1647
6815
2700
1700
2773
6968
8143
6219
86
10050
11087
10727
2594
1029
136
6972
7024
2854
1200
6121
9451
6296
3927
10819
3606
10919
2330
2187
195
5059
802
2668
241
2068
8447
10725
644
5103
1637
7552
8312
3074
7296
3278
8003
4970
8732
6915
8581
7829
62
9711
9756
9834
8889
679
2041
5307
9117
3641
9988
3258
1873
4744
2912
4027
5488
10581
8024
7786
11334
6864
489
690
602
1014
869
1993
7610
5283
4370
1361
1526
1629
1551
8777
11880
1337
3901
5041
8252
8971
5039
2346
11377
5485
10868
5694
5119
5166
1134
8342
4017
2424
4138
859
2962
8089
9964
9491
10494
10527
1364
10830
1779
8521
2101
1818
369
4937
5285
8367
9935
7071
2093
7817
1920
82
7331
7304
816
4396
6124
4120
9800
1813
1271
2994
9349
6409
2642
8526
2305
10370
10269
4195
10235
3849
12074
10283
11741
3554
2195
2600
6163
1518
8645
10726
6309
5755
5633
8399
11405
7162
9264
9029
1988
7737
517
6160
9198
11123
9892
8880
4456
2761
6481
5911
11058
6547
4855
7644
10858
11877
6358
2438
3765
6432
7846
8743
10991
6340
4821
18
3560
3951
49
12136
887
6261
7236
6989
6043
3168
2949
1424
139
3197
5131
112
8160
11707
4559
4595
4690
7951
3277
4068
4408
9133
10522
451
7262
3731
7256
11700
4986
3663
2763
9038
1855
999
389
6426
1476
2240
11197
8112
992
7032
4997
3922
2972
6871
9396
4769
1293
4173
2535
11187
1907
11182
11640
6033
7619
1151
1567
3171
7106
4160
4287
2230
174
1903
9014
3408
1538
2292
1363
4357
5260
9164
9316
680
9696
3664
1661
508
166
10155
10221
7365
1914
7263
11816
11953
7361
1104
9617
5310
9269
5754
152
9742
5679
11192
3551
3722
4538
9140
8463
1991
10792
8501
5141
3811
10669
3450
4591
7352
205
6680
2749
8497
1849
11103
3240
10582
3109
5934
10034
5810
8575
5634
4307
3156
6534
10649
10159
3832
10676
4776
7997
4276
11952
11315
11769
278
6771
7415
3252
8768
11522
289
3075
8874
8688
270
4570
11250
6696
4316
3180
1422
8275
9684
4557
7812
6297
11480
11888
1132
6242
11186
11481
7423
8938
8842
5520
10666
9199
3786
10691
8345
2161
3008
1105
9058
692
4956
8307
4369
2765
3929
9366
12046
7778
628
2451
3824
10997
3743
2176
6689
3318
10412
7432
2787
1196
1676
3947
7618
4444
5722
10387
2369
4967
2217
8148
3326
11238
3583
11984
12047
3619
6217
2468
8277
10369
5973
3667
5158
7594
6976
3423
8199
2409
3212
5366
10337
6593
2895
10724
11288
3642
9389
10883
11881
10981
8548
12147
5451
7160
7866
2743
4958
6474
7888
492
1116
5637
10762
12103
9090
10551
6589
11109
7557
9809
5241
11324
2783
9035
1696
5685
2295
5939
7763
3313
4781
8350
9142
7605
215
6707
10099
8682
11190
3483
7006
5102
6599
3764
9737
6410
10407
25
7659
10683
11277
10563
6683
10081
8584
9473
10534
11832
10151
1102
3276
5345
11116
10782
8386
8911
12253
2207
4552
4402
7395
3718
972
4579
6516
719
6155
11562
2803
2566
4025
6198
8224
10825
4063
2792
2222
5818
3866
8882
10618
3227
4214
3923
9162
1401
7703
4979
3253
10576
2661
2158
8578
8088
674
9336
7011
10595
3841
1815
10202
12064
2100
10798
6708
1673
4213
8929
1548
8875
8547
5184
1461
12093
3220
11222
7170
7430
1751
3976
8353
1772
2016
2005
3893
3237
4424
8588
2257
4072
5574
11676
5355
8418
6093
7935
9932
1519
10025
1378
5672
2587
11972
5621
10028
10097
5842
7122
5832
4888
5904
522
8043
3607
234
3796
6318
7094
1948
6361
11523
6091
11131
2224
5571
4523
5793
10769
5738
2624
4728
7818
8859
12157
11170
9132
2437
6056
6352
3167
1809
9927
7161
5086
9881
7016
9567
4945
6046
11346
6919
5590
7226
1228
9455
6846
8244
6555
159
8851
1589
12067
11630
11607
11439
6687
11452
9242
7480
11349
1556
2828
436
5789
10007
1588
7398
2780
11002
5686
3965
4727
1238
2951
8960
9484
1497
6465
7355
7823
7547
7913
10495
5185
5647
11603
5242
2130
2092
5409
187
7938
3655
3426
9412
1381
9582
8605
7427
5037
4897
3175
9784
8448
12137
9724
2235
8068
4236
9107
9392
24
3363
1088
8733
11217
2841
7537
7470
11421
4152
695
11246
6337
1227
1999
276
5929
2953
3637
3906
4778
5845
11892
4117
1137
2767
8182
9735
7661
10760
2490
11871
7742
3935
2384
8016
7084
115
1863
3119
4258
11904
2819
9357
9217
11132
4699
3802
6068
3536
3825
6642
10594
1946
10699
9367
10218
7269
11557
7929
7166
6963
5867
4761
882
557
9946
1207
7684
9483
6538
3211
3630
1708
8458
1140
3162
6207
3730
2660
8848
1307
2567
2834
11738
2151
9574
3835
11889
9408
10071
5004
6626
1627
10187
12027
358
138
8491
382
9254
4857
11390
1439
946
5498
4916
8556
1932
2352
3236
10142
3807
1936
10910
4154
8988
2416
9394
6139
785
6789
8036
8315
11598
5668
2172
2169
6628
4009
4340
910
6268
2309
6591
4458
7597
9433
11440
4652
6218
442
3415
10717
9407
9618
5744
1054
3699
929
6468
8767
1829
9490
9978
2011
913
7611
10091
9452
2606
4928
6564
9981
6
7835
6583
3361
9569
1635
1141
359
2070
3134
5160
6990
3243
2242
1474
10986
3259
4020
10824
8566
3500
2658
12042
1130
1819
7461
9627
9594
10013
7064
4318
4669
5476
12062
12197
1856
2282
10662
4008
6401
12170
12250
386
1628
10325
11591
7718
9428
12223
9101
1842
2497
201
9849
3868
5054
5889
2702
7922
331
3808
935
1774
9660
8611
11207
989
5443
10216
6993
10477
5806
10712
10668
6574
3052
11247
8365
4615
3321
10688
6246
6048
3311
9548
11497
8210
3628
10861
1356
5002
9530
5823
11652
5670
3112
182
10856
855
10332
4912
10467
1800
11341
5482
10214
1968
10207
11276
4697
4987
4650
1159
9502
1325
9652
4796
6796
5808
12100
1455
5410
8333
2800
7616
10963
7815
4378
8921
9758
6716
3736
2261
7429
4005
2394
1185
2007
193
8770
5525
771
1478
1846
3740
7986
405
11697
10480
6317
6581
1447
342
7468
727
4577
9168
9250
3516
10896
9890
7156
7851
1348
660
1492
10451
5154
11750
9277
2524
9450
10381
5374
3198
5717
9345
11147
10078
8259
9859
40
10832
6816
9430
10006
2723
11257
10511
9335
11937
7155
9426
11302
7230
5075
7880
5394
10482
7789
12024
4088
1967
11011
10791
11764
6999
423
11358
11655
10513
6142
5661
9031
4596
2659
141
2597
6701
1377
3674
12134
6362
11478
4741
1138
7374
1787
9846
4646
7568
459
6115
8179
948
6370
4628
7358
5925
6040
441
6659
8831
9046
3830
11517
6144
11085
6344
1958
9262
155
9773
4578
1089
6049
11219
9122
7950
1674
6763
10889
6416
11727
2326
7096
10526
9653
6450
1715
9172
8381
3831
6299
3348
11670
9177
587
9346
11674
2990
11374
9694
10871
264
9740
6788
10434
3864
6274
12019
3711
8438
1529
10058
923
11954
7329
4364
669
3604
5108
11032
5248
7183
2591
5906
6509
7133
2307
8804
3690
687
612
7167
9689
3200
6629
4135
1898
282
258
11554
4943
2822
3525
11844
5223
2285
6063
8078
4654
5000
6710
11433
8676
5416
475
2555
8087
7
6411
11228
11070
5546
2426
6744
11807
2274
9203
1577
7264
9259
3970
5879
10319
11437
7193
3867
11544
6823
7548
781
1749
6519
5774
9283
9369
2324
5055
11105
1727
610
4666
5413
8103
8174
8535
3750
97
6985
3137
1537
3648
1517
12010
4624
6566
2090
7097
6171
7521
572
11112
3062
597
6633
11558
7875
7345
6304
9845
11573
5976
8562
1938
8100
1753
3670
9851
2361
4260
5432
6285
11770
11605
9615
12251
11336
5591
1171
7927
9869
11465
10996
11227
874
2297
11404
2643
5347
9032
12181
581
204
7896
2014
905
631
8461
10217
1974
162
4998
10107
9557
4713
9067
1431
6868
11196
7710
7736
4283
7531
9764
3384
11730
9959
10215
7462
3331
6404
8895
2096
10291
7999
5017
8738
1449
6900
2610
1900
8186
3920
2757
6397
10624
2097
8329
11585
5624
9028
3471
8266
2171
11313
11254
8590
2010
12004
1283
11776
1019
9518
8667
2810
10577
1651
11792
1169
9398
6256
5469
10703
867
5093
5433
541
9324
12063
6354
11444
3390
9856
12180
3959
6643
6841
10153
3586
10923
2563
5036
1080
5891
4966
2023
11735
7909
10693
7321
226
1013
1929
10274
5251
9596
2179
697
1124
7378
10051
5110
7902
1778
10039
2634
7544
7604
3489
1037
10018
8505
2649
2979
2547
5132
2159
9114
6445
3967
1428
10309
2520
8033
10579
12104
448
10397
9476
5995
9844
3727
7353
8553
6279
10952
7295
9496
6251
5926
2460
22
2066
1653
8894
8706
1376
1724
3754
8652
4183
4082
9678
8474
6579
4558
3537
7003
9560
11612
10080
8789
646
6381
7527
11891
7165
9785
7697
11532
4875
10531
5341
10458
7031
2160
685
2461
7128
6267
4941
5946
4583
5784
7569
10441
521
8714
10943
3983
11726
780
10067
5607
5978
8843
3747
2196
8561
12120
4285
8569
6979
1827
9154
11863
2376
8551
3839
1246
7504
6511
11213
5439
11327
8964
11918
5510
5330
4531
365
12240
147
1668
10840
7650
8599
7788
3456
3271
4940
9223
6230
10912
9937
9047
3926
10472
8080
78
7088
2247
10108
12196
10148
7451
8980
2279
8123
3897
10134
7177
9312
11592
3631
10652
6272
8616
392
3191
16
4200
2672
6164
3493
9651
7394
4839
593
11417
8737
5827
7961
5887
2355
6036
4798
10598
4592
8656
163
11353
11566
11988
7380
12208
6356
9092
5542
6007
7993
7638
6793
7758
4837
2293
6548
7898
4481
3716
6140
1549
2044
767
5693
7870
9700
7857
3302
4517
11117
9901
3292
9011
1403
1382
6928
5671
1638
12011
6907
8591
6406
9074
1179
5448
5078
8648
5175
689
10851
6525
12041
6488
7154
10311
6610
10498
4349
1884
10591
2494
5947
3036
5777
845
8734
7967
10392
7340
11031
10143
7137
2964
2529
5772
1048
7045
1960
2530
8429
4917
9325
5901
8286
4259
10506
5656
6097
5907
7373
2978
10860
11401
6721
7842
8264
10753
3138
8325
12175
1826
5548
8785
560
10797
8435
5435
4437
8597
1442
8453
4406
11716
1689
12102
9917
12206
5962
2496
10031
340
2408
9793
10229
5782
4576
3725
2785
9715
1012
5280
4895
9958
7121
6549
4037
148
285
11839
8555
10295
9732
6770
4443
7446
236
11763
7123
11121
3083
632
6813
2493
2665
10402
10473
10312
10375
4211
9686
3874
9424
2817
10114
12034
11001
7426
12214
10379
11278
9777
1735
7397
4255
10140
2475
12241
3713
10998
1804
707
11267
5189
5472
72
7843
5101
6764
9382
1125
1241
10096
2349
6602
6780
9769
4358
1343
12246
10643
11747
8632
6652
1100
9160
8841
9738
7327
7622
987
2852
8853
630
1249
3179
482
9776
9654
3040
5010
10706
7000
3273
7227
3683
6674
6807
11939
1316
3225
1072
4815
10355
9852
5752
11204
4616
3097
11563
6869
1300
7285
6284
10866
5495
5291
9600
10037
1798
9667
5203
8227
5047
6441
8636
8105
2359
11500
3654
7052
1286
11179
4445
2137
6787
9873
11955
10695
10982
6894
9884
10500
8564
7151
963
6012
4882
140
11059
8906
6936
6542
5243
10030
4431
10316
406
8212
9196
10252
10572
9135
8234
4399
5252
11
4760
1177
10139
2863
6471
6228
9218
2989
9153
7117
7010
11767
8927
1440
11949
2875
9108
11142
10778
7232
3726
2772
9816
454
9013
8189
1367
3712
12082
1388
9042
1000
7761
3553
4114
9829
1667
3173
9539
11521
488
3230
3828
10605
5208
7848
5704
11824
8133
703
5105
10899
3291
8125
9519
11813
11046
4909
4440
11189
986
11318
11097
7705
6257
6089
5238
1198
9710
11107
7519
6812
9991
9206
8320
9556
10225
7175
4470
891
1969
5757
6527
6294
7595
9110
3249
6570
6638
7351
11237
9400
7473
11285
10633
1239
2289
2740
8467
4585
9227
1229
9200
6980
5178
4293
1058
6262
281
9235
9508
968
3953
1939
10362
1274
619
10418
1742
1390
2203
9771
9847
3568
6116
12225
6052
3178
3192
9499
6099
7029
575
6656
7115
10793
6276
9472
11005
5897
5724
10185
269
629
3081
3466
6430
11415
7062
11926
5543
10238
4356
11166
2113
8219
10232
3216
3814
8321
10523
2278
4599
13
11307
1525
2365
4648
374
10438
6477
525
9131
6895
10339
3591
7904
2958
529
3714
4732
9461
1394
9989
9633
5631
9465
6563
4703
1712
11960
955
6675
3453
9579
8595
2071
11941
10169
158
7005
9094
352
6078
6236
8946
12233
2920
8503
4644
661
7057
10181
3665
7979
306
4790
2356
1927
11442
3427
8941
3638
10428
1266
1560
10326
7179
4109
7867
4904
7294
514
894
8601
21
899
207
458
10246
2430
8442
9299
3389
9905
3911
5383
8907
552
9631
3144
6917
2056
1925
634
6082
8508
11364
11870
8619
10529
105
3041
10361
1709
89
7014
3174
917
7833
6732
1949
6368
1
8032
6047
9127
11291
2720
8783
12030
3117
11608
9768
3762
213
778
3496
10809
2043
8920
5420
6154
9759
8357
10678
10205
8465
4167
3788
8586
583
12151
12243
116
6644
11060
12199
11975
10973
8712
1763
1875
10445
3224
526
7725
2946
4473
5655
8884
6059
959
6342
3633
1050
8782
8711
3380
3676
5776
11074
6573
5179
1607
3610
11963
6635
12260
10001
791
8984
3056
10047
1980
3598
933
7424
5626
1682
4179
6446
4116
988
2896
3778
5658
3093
3155
1823
11804
1098
10396
2844
9078
3342
38
6540
11462
8707
3356
9645
7813
9098
8220
11685
2428
5043
5346
8954
4811
8476
686
4799
7437
2353
6353
4569
8213
2752
9077
8073
9109
1040
7491
1265
11357
7059
277
5084
10276
9437
2382
571
1435
9439
5352
5445
1007
4543
11626
2064
1136
9882
5343
10177
294
9739
10204
8780
2403
10321
3998
11432
3741
11304
2719
11731
5150
2808
9017
556
10934
4795
2469
3738
4286
9908
2604
362
6924
1704
2139
3239
2383
7314
4311
9477
1312
11553
3930
6183
1591
11508
2162
2396
317
9516
5233
5068
4036
8987
3020
9903
8228
9105
5295
3972
5370
4133
974
7291
9175
954
9610
9752
9547
11408
5016
11931
9179
7490
1640
1290
1380
1933
4675
11193
10222
892
7287
4876
7906
8194
11499
10301
9041
2466
7657
10106
9788
1913
2736
726
7214
8245
1796
3845
6402
936
2265
824
7274
1389
3564
9076
5429
7827
5690
7878
1868
8202
7486
9655
806
4805
11129
10300
11212
12207
10426
9155
7511
8056
4494
2632
10906
8896
8623
7832
4388
145
6467
2033
11180
1165
2050
3760
4435
3430
8190
10739
7069
4361
10616
9454
1771
3511
271
8436
2032
9005
11853
3810
9996
4346
10653
545
3241
8930
8502
9323
12159
7564
920
11169
6640
7694
8230
7126
4278
2983
130
7980
2667
7138
3223
9374
7693
5392
614
12142
1466
4497
3042
9126
2419
5085
3294
6737
1500
9018
1521
11168
4232
7686
8820
4430
390
12092
7124
5913
8592
4806
10967
8238
8044
11993
3993
11714
6609
5319
12068
7119
2421
5604
1750
11040
11916
338
8407
1341
11706
7982
3640
329
10822
3004
6960
4090
9828
2322
6667
7009
4197
3549
9650
8363
4203
11628
10946
6185
1639
9130
60
1240
5760
5136
2343
2120
1524
7617
153
481
6122
7674
7101
1762
8942
7715
9977
11122
7479
6212
4853
2711
6766
4150
1333
12176
8378
9328
11510
11903
10250
11173
3850
8340
4124
10978
4788
2866
1386
5941
3067
11865
3629
11595
10961
3028
2969
9900
8646
6136
8801
4263
645
11841
2074
341
8041
1622
7141
5796
7184
11435
8232
5475
10281
10367
11342
74
12132
10849
10268
8633
11311
2051
2541
1301
5877
7368
1304
8428
11137
2599
2573
3186
2768
4831
4223
12133
2106
2679
1387
10940
11848
7083
1279
804
1555
11634
4566
11859
4841
3594
6035
6852
10112
8705
4177
1308
9106
3452
3695
4242
2198
8966
4425
6150
943
822
5005
6612
8356
5619
4547
2538
9503
5207
12035
11033
3054
3675
7776
7218
6722
3300
3310
7221
8519
10682
5954
832
3462
11436
7643
54
3451
6305
10093
1481
4873
8038
3335
6016
4926
9138
5797
10353
12055
5083
6645
5490
768
2065
11650
7311
8477
12183
4524
10524
2717
2079
8914
951
8058
2482
10454
9181
1759
9984
4422
6704
9916
5182
8533
3701
4243
688
3432
4944
966
11631
10395
2713
4757
11708
6320
5975
3572
5299
1990
1205
4971
11925
6783
3600
6490
8609
12234
8070
8577
7973
11997
1625
536
8766
7970
4212
6456
3507
8393
9524
7112
2708
5031
6514
4662
4021
1854
11555
2872
3030
9397
1645
3417
3476
11715
11053
1792
3797
3368
7196
11826
5109
6024
8795
11391
126
5959
3876
4451
7147
3531
10922
827
9831
7790
984
7783
10380
11752
2443
8554
10541
345
814
6166
11115
5779
2116
10026
793
12193
6898
2674
94
4225
3756
2891
2371
11509
3228
7863
6359
11273
7326
6028
11045
11104
1865
4612
10049
2645
2243
5373
2336
950
1120
10789
2204
419
922
9446
8669
10227
5408
5788
5742
7667
5567
8135
1202
10818
5765
8389
1970
4018
10343
3687
1997
4033
1248
2192
2712
9184
2190
4670
5142
5984
6565
7804
6943
9510
10055
10535
10641
2136
1065
600
4227
10813
7577
77
7546
2898
4820
9506
11403
6413
9444
9064
8007
5468
5951
11157
3391
5415
2560
12128
8162
2635
5256
3530
8567
1908
11352
235
1604
7984
9310
3490
12079
11150
1994
2824
11381
10568
1342
8512
1619
5287
2060
12203
2219
9865
6038
260
11482
10231
9093
3744
2026
6988
4234
1917
1828
9765
6233
11740
6283
4208
224
8915
10002
9333
6469
11542
10954
846
4289
5560
2551
11120
117
8837
5966
8195
8659
7489
5
5342
9111
10787
4324
1063
2590
8434
9352
11062
3735
10589
3517
6986
10755
6767
5622
1605
1733
10516
10901
11823
9504
3812
11806
10554
10167
1761
5401
2739
11814
2472
6738
6891
7943
9685
4206
6371
10350
9361
10348
232
8258
7561
9795
6168
3596
6288
4632
125
7641
6229
1296
1976
11625
11568
10267
5750
8152
3086
11370
6882
11407
7673
3345
8172
11550
5870
6506
2797
918
1646
5122
5126
4621
6809
364
2125
8150
8717
55
638
302
10958
5811
1276
10247
4432
3644
4143
2878
6493
10478
10453
5240
11533
10488
6937
7240
9945
10160
2593
11309
2393
523
6376
6981
6677
3900
11817
5585
11477
7956
7570
11314
6777
10161
671
4188
666
3266
1887
8472
9911
11139
9091
7687
6031
6090
6238
7350
7830
760
6254
1906
3818
6269
4300
5569
7941
10785
4164
11223
5971
3579
2832
5449
3472
6327
137
7043
4892
2180
10320
7730
3177
4854
4637
5115
11402
7648
4261
1331
10209
10674
7002
9550
6941
8017
6241
9521
12244
6881
10342
4530
10314
4673
6996
1252
3374
2814
4719
6544
10040
4858
7901
11229
8580
8427
1077
10176
4363
770
10357
8865
249
9766
7239
3419
10273
10015
4976
4544
5565
7939
716
11840
2048
5997
6600
7245
4178
4809
10916
11629
7140
7190
1460
5989
9860
10948
2000
8175
404
384
11583
11635
10344
1633
11719
4784
11596
6970
3925
4158
7449
8415
2193
11328
10016
1015
5124
7418
7409
8989
2871
9
10136
1838
4804
255
7026
5713
3324
7714
1581
11148
924
2779
10700
7891
6132
5320
7312
7102
6042
