139
864
291
1242
599
1236
598
416
314
1264
170
408
1228
2126
102
1553
1656
727
602
3038
642
1582
479
3016
2411
2815
2676
2909
2933
1502
1221
257
1093
2757
2605
2666
17
2451
2992
2292
192
572
2009
596
2229
2375
1133
1392
2037
1966
1749
1677
1211
805
2250
637
211
538
410
2874
1954
251
1777
2527
1032
990
214
3008
2684
2251
1992
134
2898
1094
1657
2031
2195
2249
2023
1011
44
2968
1911
2756
962
2488
1569
254
554
1623
1006
2260
1313
999
203
2154
299
2903
3026
2425
1602
1436
2873
2364
2570
2259
194
2119
2497
3045
1159
1965
2510
2181
2577
463
332
2846
2931
2810
2885
952
368
52
929
450
1565
51
1431
63
2417
256
2764
926
612
240
1557
1727
1302
270
70
2281
528
1100
889
840
2610
801
2213
2505
2708
1611
507
2867
2057
879
298
457
2378
178
1146
432
691
1195
1216
812
1666
76
438
430
1494
144
2855
45
2840
354
2979
3152
1298
2972
152
2543
1074
3017
1263
0
506
3114
937
2825
1108
322
1860
1533
1808
1474
32
218
2560
14
93
239
2880
1518
705
149
2713
2553
2978
184
3014
321
578
1896
485
2986
1979
2010
621
1747
1376
1404
610
1235
2736
1748
605
1377
346
289
3046
3149
2580
2636
1902
2706
1161
174
1402
2258
120
1803
2862
1593
1880
2910
229
1952
2274
3105
2316
188
1053
2290
1391
2360
1559
887
2961
1886
601
246
2163
682
1157
309
1624
2704
527
532
2238
2024
1784
2897
1651
1763
2405
897
2387
568
2241
175
564
2997
1220
1716
1620
2588
2104
495
2763
387
3012
2913
790
1950
2374
867
1437
1149
1029
2566
1786
471
1961
266
196
676
88
1769
1770
1697
3158
2495
1462
423
1196
1789
2372
25
1455
1025
1963
433
1064
2718
331
729
2516
2040
3083
1423
67
1116
2688
764
31
1536
1351
2297
2256
839
1577
2016
2930
343
1940
685
166
124
2993
414
2949
581
449
3090
2724
1425
2744
2452
1869
785
486
1178
1924
1743
176
776
2441
2607
2186
2483
1971
2616
862
80
1442
2348
2103
2792
2354
411
2475
442
949
3075
370
2232
3049
718
2893
478
1586
439
3111
1642
1052
141
3047
1742
557
1465
2080
2046
2419
976
2166
1554
2155
759
912
177
1744
2876
2948
1833
2279
2407
944
183
1538
1271
679
2077
511
2401
1068
1057
2575
501
1723
393
1213
2985
2440
162
772
1350
932
443
1422
2093
1412
1480
761
1044
1472
1177
30
3147
2782
2721
2246
173
2177
296
325
1299
1451
279
594
1411
2780
582
1225
2889
2820
2144
3157
1525
2113
73
555
48
2291
611
3129
1491
1918
2302
2621
1370
1868
402
1760
1123
2664
2965
765
2465
1957
1457
1089
2365
1018
1694
2366
1689
1726
1798
324
831
1106
2817
2248
1988
1487
2221
2310
544
942
2132
1842
2548
2592
1421
964
2285
2115
2464
2940
1075
1034
2838
3116
654
3039
1736
829
3085
2963
2611
108
2798
1234
318
2725
1288
1102
3082
2500
1866
3079
1419
1632
2206
2907
2390
670
1073
1874
56
1804
1644
2140
3062
468
2097
1960
535
567
2852
2966
2276
2098
700
69
3030
1754
436
2131
1618
1017
2987
565
313
233
3028
2692
2550
111
2357
2196
3123
2854
736
472
695
1628
2443
1835
1641
1962
693
2112
1084
1309
361
135
1378
2295
1360
2389
366
1882
29
2641
22
1174
2185
1042
420
1551
460
43
87
1151
1691
1432
561
282
2438
678
2018
3001
903
533
1681
2590
1192
2748
2525
2980
1188
680
1090
1113
2509
2003
2320
2574
1506
1873
221
543
1702
2268
756
789
3009
1563
2791
817
940
2092
1814
272
521
522
1977
1010
1047
350
1210
2422
2448
651
838
2845
2935
2461
2106
2058
168
2645
3000
1345
1752
945
1023
1587
1818
1385
3109
219
367
1922
3057
2408
2262
1468
351
1105
1317
1233
490
2836
2503
498
1832
210
3108
755
650
227
365
734
276
2108
2761
746
1078
807
407
2426
2211
2467
859
2271
2540
794
7
2788
1357
1320
415
1071
2668
1912
2307
199
1091
1124
283
231
1316
2600
96
2482
2711
1556
857
2596
1839
3018
2994
1575
1737
104
2359
1173
2554
2463
1048
1731
1706
2591
744
226
1244
2209
2430
1713
1775
1037
798
2506
1027
1364
2587
810
3128
1813
2102
464
1780
3161
874
2969
1253
1117
1783
2552
212
12
3060
422
1128
1061
2658
1467
741
2785
1103
1545
809
2872
1797
509
644
597
2723
2914
3126
869
2789
518
2624
900
573
3086
2875
1237
2170
2593
1283
1601
123
2561
220
819
3064
358
930
2786
2071
1811
1746
259
2924
2424
2739
2526
1610
1114
2541
2887
1671
1261
2866
2458
456
462
2353
2709
2691
2400
381
2950
1800
1840
2947
978
1003
2944
2643
59
2030
2869
2806
1590
2493
2420
1334
657
1323
845
542
881
1414
2542
2005
969
927
3097
1670
1517
1459
3050
2620
1444
2555
2212
1650
435
2999
237
2670
1127
109
2333
781
2174
163
288
1190
252
1456
2216
2373
767
787
1454
1725
2042
1080
1097
1567
2466
3122
1041
1295
1375
847
2382
2533
461
2308
2563
157
2673
2096
1820
677
1889
1036
238
2515
1231
243
100
315
1614
1771
3022
1621
261
1001
1849
195
1995
1255
1951
179
834
842
2916
2745
2499
340
1187
2477
748
1200
662
480
803
2263
1239
1511
2571
549
1272
783
2858
2651
742
2549
2851
965
2335
3052
2176
2769
2245
1135
247
871
1268
1909
2870
626
347
278
2004
2413
655
1366
979
1543
907
2770
2730
2410
911
3007
632
1110
445
617
2439
2121
1204
1510
1767
844
2694
547
2242
811
2582
263
2314
2486
2254
353
802
208
613
1055
3130
1690
1584
1483
2236
57
1286
1359
2321
2649
1936
2584
1393
1206
1322
3053
560
707
2989
424
647
1898
2581
2585
2022
1005
620
2044
553
2918
1914
998
1374
1307
2896
3146
1659
440
508
589
2772
649
1662
1709
1326
1344
2073
630
1413
482
2894
2705
1226
2208
2053
1739
856
530
1921
49
858
1072
719
1321
1441
2379
1588
1647
3094
1450
2362
1447
2045
2188
1134
2266
2775
1665
297
1336
1720
958
1330
1356
1222
349
1399
643
1179
1532
669
1395
2849
1913
1807
2508
1566
1729
786
3019
140
788
1740
2202
714
1477
1732
1862
2225
618
406
2283
1289
1660
1278
1795
497
342
2059
2399
782
2147
303
1864
664
1829
3156
1609
2988
84
2342
941
961
841
1498
2921
1999
1426
290
2013
1251
604
2159
916
1397
2167
1099
1088
2223
1512
821
2606
1000
1507
18
2204
1125
1361
1844
1406
2303
1608
1825
1672
2626
2338
1009
360
2699
2028
1352
1241
1407
1765
344
986
2895
1927
1488
2032
113
1793
2240
1778
1198
85
2184
668
1014
128
2507
1292
891
2043
307
383
150
1270
2578
426
494
1207
1766
1208
3059
2627
2471
1461
275
489
2415
1229
690
1562
1915
1667
1340
2334
2865
1058
118
1024
1503
281
3011
2468
968
1475
2423
1831
155
304
2063
2991
2011
2087
2369
1791
575
2833
2714
2768
1956
2418
843
1972
269
629
1033
286
2340
300
2025
2480
1883
2970
65
2349
890
2702
1987
1947
1373
230
503
1362
3120
1627
2653
1004
836
1738
374
3106
3065
2008
3056
2669
751
99
1938
866
910
2381
529
1260
1847
636
1269
185
1338
1949
931
2496
2428
1572
2534
1273
2189
607
2859
151
1448
2269
731
1509
1801
3118
23
1871
158
861
902
1612
1230
2576
444
3095
754
923
3131
2227
311
548
2114
2257
306
287
694
308
2453
749
1616
1398
2783
1429
908
86
2513
1446
2633
970
13
873
808
2720
514
2547
409
1537
1337
2392
1779
2878
3144
1948
382
2696
2315
1381
1497
2319
3115
3117
552
222
2573
1096
2741
8
2906
316
1328
427
2828
105
1558
142
121
2637
3020
1189
2090
2743
2746
115
1583
1427
2270
2951
3107
1859
2019
672
1613
2171
2941
591
1578
888
1973
1741
2067
213
778
3004
1878
800
2619
2284
1717
2416
2809
1703
2861
1343
273
71
2012
1087
394
583
1718
2813
3101
500
2469
2753
3140
2891
1655
1259
2272
2545
205
733
1714
526
1809
898
377
1941
2829
1626
386
198
1050
590
519
2697
2161
429
1083
207
491
1684
3068
792
2632
1186
1185
1980
2234
2755
1410
1476
83
2609
2355
20
1552
1721
2877
1405
2111
3151
2841
2110
973
2943
883
1098
156
2409
886
3160
2920
2754
2630
2975
2051
2183
1453
1505
2795
458
2086
78
3070
1056
906
1764
3091
2844
380
947
1926
2127
715
2117
686
2707
1293
305
209
1674
2350
3136
1735
885
1837
917
2436
2287
191
1964
2157
1265
483
915
2742
277
988
1637
1245
1830
571
1435
993
1580
1576
585
3098
2339
3154
1349
1007
674
1904
855
447
1600
1877
2608
3145
2822
2766
2927
2818
2628
1247
294
1547
588
1281
2322
2050
2656
2304
1710
3133
1417
425
534
1054
2396
2644
1606
132
6
2808
421
2805
3078
1776
1368
556
2162
1675
2826
1711
570
352
91
2247
2674
1170
1867
1285
1916
1653
2804
1591
1894
697
2646
348
2309
3025
2567
2371
1137
2020
2614
2990
2974
1339
2629
453
913
3150
1199
1274
2069
37
974
2923
983
2029
2129
1418
1284
1850
39
1486
2323
169
1355
737
3035
2856
1564
2089
634
2794
2099
1640
1290
2470
1380
579
328
1967
892
1143
780
159
1745
1861
2457
61
849
2881
3048
1812
1596
1043
2635
1544
2622
1822
1070
53
2579
258
505
752
2138
217
824
2356
3159
2406
1389
2642
1266
2603
1925
1598
3155
1607
1945
771
2956
2330
2832
1085
1933
1730
1325
2244
1756
2153
2529
1403
1891
2638
1929
1163
963
3058
1907
398
584
948
704
431
1688
292
145
323
2732
2233
1165
1452
2
1712
576
3142
339
2002
1788
925
265
376
2478
1463
271
696
3134
244
2967
476
2337
1937
813
2689
1910
2678
2937
3112
1164
2298
250
413
545
1193
738
310
2178
893
1131
1449
3063
15
2118
721
1420
2779
981
2228
1539
2671
1550
2868
363
982
182
985
2631
1194
2306
1885
1121
187
619
1815
1175
1182
2517
2329
614
1513
1466
401
994
934
371
2403
2293
593
2095
726
826
2864
687
2344
136
2586
628
334
1805
390
2442
1109
1953
1817
2847
710
1039
2313
2066
2738
1561
2908
1594
3002
2661
1112
465
1560
1223
2120
3127
2481
1508
2134
1104
660
2834
338
215
1615
1341
2655
2679
2958
1846
1592
2884
2793
2663
816
1067
2148
274
2376
865
101
1501
2837
171
107
2226
1521
3148
1826
2830
2123
1983
2952
2130
2383
2473
2717
1978
295
712
72
1524
2402
2737
3041
481
2347
1530
3055
1872
1514
3119
1762
1490
1171
2589
2222
2682
2194
2345
2404
405
757
2124
2312
2078
97
1333
2522
743
806
2922
3043
2639
1535
2168
2230
2476
148
1993
2172
2091
1315
692
818
1728
1386
1845
2414
2175
1599
2494
2594
701
1499
2803
921
1424
1708
905
454
2203
2218
2437
1991
167
730
2367
1310
2431
26
2107
1897
1652
1622
587
1401
997
1176
1700
1040
33
2033
2501
1379
41
1876
2014
2318
2750
2289
2034
2015
609
1132
28
441
665
2288
493
1258
1301
2976
2498
1382
1304
236
1985
551
520
2346
1232
1138
1905
720
735
2800
1750
58
631
1181
2332
592
1303
1387
2760
2776
2064
2358
939
2942
1249
904
2685
1279
2535
3034
2252
2901
2602
1142
2514
706
2787
1022
745
1546
1939
2490
2164
2084
513
81
1308
2634
914
2912
774
329
2054
2001
943
822
909
181
164
1523
451
1311
1111
1287
327
1790
2802
2007
1858
312
832
1201
2447
2083
2456
1481
777
799
54
1920
2728
2282
1701
2960
987
2377
1394
768
2926
285
2784
428
2079
722
951
989
2946
2149
326
1383
1724
1086
341
147
2472
1107
848
966
2601
661
1002
2474
2657
2801
1879
2971
1203
1990
24
2964
2816
2899
3103
875
2843
938
2647
3132
385
2665
2648
2325
2210
936
2722
3081
1332
1934
935
566
1854
2562
1645
2243
1792
1430
3036
1013
1928
2380
126
2215
1347
355
827
1639
984
362
345
2179
2683
711
3042
10
2551
2116
1834
793
2917
94
129
2370
3061
1900
2528
1932
2273
1865
1658
516
1857
1277
950
1120
419
922
2328
477
2035
2672
1692
2341
1471
1202
1669
2928
1970
2151
820
1997
3023
1248
3139
2807
2190
2758
1046
1888
615
1318
3040
2136
2597
1772
3110
131
77
2052
724
1314
1851
2429
2995
1372
1855
1319
3029
2299
375
1908
333
2384
2812
1604
1118
2982
1943
2394
2662
1342
320
1619
2583
2060
2219
1673
1942
260
2487
2039
689
901
2026
138
1917
1828
1573
319
653
2137
2778
558
2187
112
531
224
723
2564
2712
1433
2462
2530
1458
2850
846
193
1464
946
2021
1629
117
645
1870
3
74
1755
467
5
1246
919
228
1063
242
2412
1160
2654
1526
1605
2938
2460
2686
1989
2835
1975
1761
1305
1541
622
2446
1493
110
2275
2397
1169
2905
232
66
2857
2072
2192
536
125
2133
1254
2623
1976
2599
2459
2075
484
1654
2823
2398
2538
1774
918
1646
1026
1030
882
1335
2351
364
2125
27
473
525
725
55
638
302
2752
1276
2781
624
2055
1280
1049
336
47
106
1079
2286
2261
1144
2519
2296
1836
1753
1101
1968
523
2280
1428
2751
603
1489
2484
60
2900
671
92
666
1887
280
1719
359
899
1935
1994
2595
760
2158
3072
42
2173
204
1473
2100
68
1875
2512
2231
137
796
2180
2128
758
541
1019
2421
165
248
1331
2017
446
1358
2145
1329
3066
2150
434
2122
577
2819
2892
1848
762
388
235
2749
1984
267
770
2165
437
673
249
2201
1574
2142
2081
2762
2710
2890
448
1469
716
2531
2759
2048
1901
1168
82
2771
1460
1893
1668
2000
475
517
404
384
2681
2152
1633
3013
688
1240
62
852
2902
2615
1262
223
2193
373
1824
2677
3024
2740
2831
9
1944
1838
708
255
1617
389
1581
924
2036
2536
1224
1946
739
40
868
539
2650
1371
1145
1031
372
667
357
967
1353
1035
470
1396
2765
1549
1256
2094
1555
3032
1250
1699
1252
2934
79
1172
814
1852
2220
2774
2105
133
1140
933
928
823
1531
1214
504
3125
2395
1996
2434
1958
1384
894
828
3076
2523
1683
2716
2700
2652
652
172
38
3015
713
90
3113
1205
3104
2727
1827
1155
1324
216
510
1680
499
2618
1856
1388
1519
2386
2871
2076
1540
1217
1416
2217
2659
1676
1197
1542
2539
953
750
234
732
3153
1156
2715
2445
1209
1065
2156
1062
1167
1492
3099
884
143
3100
850
717
2996
2502
264
75
2492
395
2687
2224
2953
396
1365
3051
1903
595
2109
1296
1821
872
3067
2326
1548
36
2667
2143
2698
977
1571
1122
2239
2504
1892
675
728
412
1516
1649
825
616
114
417
1625
3096
89
2082
753
2546
1630
11
2444
284
1066
1191
1440
2955
2954
2860
1568
2427
2719
1687
851
2207
895
496
2305
1782
335
515
1348
1015
2962
2957
1781
2569
1785
2070
356
3006
1312
1635
550
2388
2479
2521
2265
1227
2827
957
1773
2141
1008
1092
2821
996
1679
153
2936
580
1470
703
1212
896
487
559
1141
1119
512
633
2726
1664
1012
1931
1150
2959
116
740
2915
1974
1081
1810
830
119
656
2883
2839
3088
635
369
268
2703
46
991
876
773
1219
1126
4
1595
2311
3027
2491
1077
837
681
1715
2352
2617
2361
2197
1148
574
50
853
1982
1823
833
1115
1166
2518
1906
971
2701
399
2559
2368
19
684
35
2983
524
2455
920
1841
1890
537
1705
3087
245
784
1409
2537
154
1686
625
2733
3031
1346
569
3089
1758
1816
2065
127
3138
2006
980
3135
190
1139
992
699
606
180
301
2544
2929
1060
2973
3033
2565
1069
2524
2205
1243
16
3141
546
658
3143
2886
1504
959
2331
797
225
2074
1799
2485
3121
2277
2085
1693
2797
1045
469
954
3137
2735
639
2932
1218
1158
1415
2882
1527
3077
1300
3021
2848
1603
160
1704
956
3071
877
1919
1884
2200
98
2981
2557
253
103
1445
1443
1648
586
627
1696
2101
2199
403
1154
2255
2863
1682
2056
2998
452
2301
1327
2049
880
3074
623
2393
2925
1787
262
1634
1438
2198
1969
2520
1802
640
2385
2598
2984
1959
488
1843
1734
2911
146
1534
1986
1369
2450
3093
2811
659
1794
2511
186
1147
608
2191
2799
1930
197
2327
293
766
400
122
202
835
2294
1439
1733
1695
3084
1707
3069
1153
1661
2432
1759
854
1589
2267
641
1
2160
698
1636
1291
3010
2489
1520
1853
1136
3054
1631
1998
663
683
1257
317
648
1434
1479
709
1282
1768
972
2675
2680
1306
1400
1408
2237
1496
2038
1529
1663
1354
3080
3102
1643
1051
795
2693
1597
2604
2729
2625
1819
1722
1183
2572
1059
540
1678
2796
3044
2532
1757
1923
95
1020
563
2790
863
1484
2939
1881
1038
206
392
2842
870
397
2814
3037
1028
2690
1485
2660
960
1570
2773
1895
2731
2146
804
1751
2454
502
2977
779
1863
200
2182
2088
2278
1796
378
2336
418
1698
391
2640
1522
1162
1495
2695
2027
1152
1367
2568
64
2062
1180
492
379
2235
763
2264
791
1076
878
337
2767
2343
1016
1275
455
815
2317
995
1981
201
161
1579
2777
2449
702
1500
1129
2613
1021
3073
1585
1955
2253
34
775
2556
1478
3003
1390
2139
1363
2945
2612
2824
2041
241
2061
2363
600
2435
1297
2214
2888
2068
646
1528
2879
1267
1899
562
3124
2734
3005
189
1806
975
2747
2047
2558
1082
474
2904
747
2300
21
459
1184
2324
955
1215
2433
2853
1515
2391
769
1685
130
2919
2135
1482
330
1238
466
2169
1638
3092
1095
1130
1294
860
