974
4601
8987
10026
548
9782
11098
9500
5324
13923
3524
4034
11332
5653
12055
8978
11995
10158
3860
13995
8899
9431
8677
7766
10662
9733
14584
5485
10196
3939
13622
3952
2243
1334
2095
2734
5819
6897
14042
3840
11400
4112
6150
1425
11330
13087
14573
4408
2522
1460
11888
5803
2186
4033
11729
4709
10806
9124
2143
14263
9418
5078
5188
9821
4290
9640
12340
9329
2216
9552
9885
2600
7624
1603
10671
2514
8586
1377
5483
11975
13640
11850
10689
3368
2783
13713
6895
14702
13185
6289
628
7510
12327
5223
10273
9119
14945
10738
14867
3923
10580
7899
1250
3823
3849
5942
14037
10211
4955
154
8639
4423
1785
654
8031
12465
11797
8406
8446
9838
4943
8250
2951
561
8375
15135
15078
1468
9850
10088
1087
7134
10014
2331
5077
14758
3777
1983
6055
167
5893
6117
5808
7193
5829
4697
7256
6693
2635
11649
9248
9975
10060
13601
6608
2707
643
12383
2826
13210
8481
2850
9117
6635
1982
2481
5210
11685
15186
8311
2389
14503
9822
2524
8027
6436
14556
772
6274
5964
2764
10287
11457
11346
7484
6904
1471
12262
13661
6438
1352
1541
791
15284
1078
6571
5187
619
8244
5634
14600
12082
31
6241
7367
12991
12149
13924
3780
6122
13883
13196
836
9276
18
808
5363
8581
9687
4501
1018
11108
13245
719
9144
6689
6140
1927
15015
9843
12785
2765
3680
5184
2611
6656
9155
9056
3140
6761
1231
4267
2450
4115
1658
13578
1972
13958
952
8719
1985
11776
2090
3327
11851
12570
12670
4903
7218
1391
9802
14277
11638
12368
7191
8999
11847
4345
11387
11549
4027
13676
4928
14996
33
8425
9137
12084
7687
14134
8703
13035
11772
14115
12061
7772
5435
4258
10083
1001
14147
2122
8975
280
8287
3742
7158
4072
8682
9049
11901
11890
10794
13158
8674
12527
3874
9873
6698
8509
134
6288
1274
6988
2674
6961
6309
6232
4124
2105
9348
5428
8855
7691
11043
6430
7174
11435
13861
4683
7896
2663
9889
4817
5121
6467
15202
12933
10052
4151
12523
12716
6250
12675
2828
13300
4681
14409
3483
4305
3812
12584
11814
9965
12357
13190
7103
14862
14524
12906
5833
11552
9364
6409
4558
12292
5347
8613
11633
12656
8237
230
467
9630
11536
6106
452
119
9193
44
11713
12
6349
3135
5110
3594
3359
5873
11783
2043
3206
11795
5860
6991
10095
12044
7666
13221
1586
13835
9928
2648
272
11071
13133
10187
10632
7346
1358
12799
11382
5452
9668
3275
3666
10036
1933
7319
13770
9284
2835
15218
3308
3576
4809
6354
1741
12148
6787
14374
6133
5667
9600
13067
2961
4230
15091
519
14289
11521
4407
14054
2858
11805
3017
5809
12536
2445
10433
340
9875
4168
13392
14640
828
14082
9093
4761
4200
5123
1861
775
14142
11031
9362
1269
9667
8003
11622
7616
5536
4411
1764
13820
14553
10412
9415
4796
10006
4504
3930
8321
5378
11321
3084
10128
1844
10619
2800
13993
5227
2348
2632
3037
9774
13809
4147
12102
4551
11911
335
14311
11299
10040
12935
9954
15250
11578
6014
15125
14775
9031
1096
14444
12616
11091
9720
397
11873
11360
11574
1748
14512
10961
10817
8366
214
2471
6491
12586
13261
4218
8004
610
7601
521
7696
14342
6228
13540
5728
675
11276
9830
7868
4870
14201
7618
5662
4138
8804
845
7800
11861
4572
7648
10171
489
12851
10824
14272
1826
4670
641
4444
1651
4438
159
325
12602
6720
3497
486
15306
7972
3960
3222
2407
1494
9973
9379
14316
220
11355
14832
8832
3698
7414
14570
6891
6057
5350
1035
8150
12980
15116
9020
9160
15212
9539
10169
3286
6856
5517
11879
5664
8724
9665
10175
6690
15282
8520
5279
2364
6137
8721
9816
1476
3723
13579
8961
9436
12278
6706
7225
142
11340
8092
3607
14687
13124
8929
11871
3918
13673
5447
1347
9197
10486
12723
920
10697
10742
12678
10674
1553
927
8874
9434
6927
3932
11079
8805
8902
11145
1969
13488
13560
1687
4739
5579
5338
7371
7699
6213
2060
3278
495
5433
1373
503
15020
13922
13701
12545
14132
12565
5065
6002
5515
14766
45
8921
1283
9271
13649
4253
1647
10562
431
6915
6671
9192
4543
15084
11151
6177
1727
5574
14453
8058
4244
12384
8185
10533
12543
10084
13104
12161
5072
6156
11220
1399
7357
7063
11771
13764
252
7029
13610
575
3816
278
13959
3254
12622
5764
8647
11849
10788
10035
399
10881
12359
6906
2405
12559
3153
11420
11405
11779
9690
577
7986
4673
13935
2926
10983
12764
2869
7676
5658
3469
14790
13247
7156
5437
8476
1875
13091
7355
14593
10354
10447
10730
8556
9359
14777
7913
8651
6080
3718
13563
10941
1069
13012
10876
7577
13436
9468
13353
8686
8735
11637
308
13329
6987
2505
11068
4850
11094
3744
12481
12976
13756
787
3293
712
11667
10543
4245
11832
3303
2916
8336
14179
14420
1817
12285
13402
13847
12519
4866
8543
14189
7585
547
2874
8347
3378
4917
9526
874
14555
10104
14801
312
2402
4862
5633
10924
3578
4990
7051
2574
14157
6596
8121
6444
7692
3505
14194
6753
121
8591
1524
888
11432
12601
3028
7979
14949
8342
13888
4936
9714
5497
5772
6728
7399
12349
5316
1191
6907
2356
8064
11060
852
2004
14845
11296
9586
12957
2076
13683
4644
5810
8226
3481
6815
2540
2262
2619
8026
488
14058
5280
13030
14577
13746
7865
10038
5479
4687
13878
3377
13652
14228
3292
221
6400
11233
5343
776
6896
12701
2556
4433
9798
12457
2085
4875
10368
12478
6629
3047
6434
3532
94
11526
13568
5220
9460
3548
13738
1523
6238
9217
5827
6662
6899
12121
7785
6016
6157
1290
4493
13191
499
10663
5710
9545
1915
3865
2370
3917
4249
11194
9244
3300
7282
620
950
12798
5329
13725
578
9220
9752
12818
9321
10797
4448
14692
11966
3290
7038
3382
1638
11635
8746
8210
2202
9079
12719
12006
1113
2264
7104
6466
6422
7828
14303
8752
5693
1172
2459
12682
6485
321
4664
12229
1271
14796
2822
11474
15344
14185
663
5066
4672
1187
7407
536
5131
5198
5938
9797
5598
11422
424
9149
15121
13898
5177
8402
6326
13074
1103
13120
12231
11640
13889
8990
466
12557
9343
12886
5244
10928
9704
1180
11946
8297
4736
4883
14114
9620
13258
6985
2254
5071
8340
10506
14962
1136
1392
1569
8447
10679
6159
13699
12855
6312
2590
12974
1919
6869
320
6868
8468
7181
14084
11511
9241
7466
14753
5911
9615
13895
7236
4692
14510
14067
4442
10565
15089
1217
3654
7043
2520
1379
10548
3073
4976
5999
13969
1418
4220
2772
843
3545
7425
1124
12826
5138
605
7723
9355
1129
6484
10823
5300
9958
11186
14484
5596
174
1457
3638
10878
12595
3555
12997
7922
5192
14563
4007
2681
4908
5974
4120
6305
6597
8570
393
9387
4685
13549
763
2108
6091
8850
14182
13814
13474
13374
2478
7735
11218
201
13466
3833
1746
5761
3496
2007
2827
12469
14241
12907
6053
10167
4516
13451
14451
11414
2754
3758
9210
14314
7061
7483
7754
459
1534
10672
7519
13900
8725
13195
126
2276
9945
8508
196
6535
6090
9677
9754
1480
406
2229
14928
9310
14767
9347
6127
12805
9148
11109
11564
14139
12642
8441
7889
6476
10058
9268
1520
2814
4310
8365
7237
2194
3274
4015
5679
8055
13249
10282
13962
6179
3207
48
11663
5816
14639
2195
4300
313
14489
6718
7324
2578
9765
88
13072
9492
12039
2925
1846
4401
579
12184
9715
4264
14086
3201
4278
4758
5366
12281
3134
10378
3269
14973
13198
13715
11743
8315
12673
6221
6552
5509
1583
10800
4509
8926
6167
3350
10737
10107
7762
12916
5099
7196
11081
11856
14463
4012
6921
7032
6154
3793
14226
14536
10549
206
13229
13535
1021
9152
12944
5863
11038
3719
11196
12744
7435
14709
5508
4391
12612
2808
1783
14978
4100
13694
12166
2714
1640
2314
6097
8392
3494
14682
4946
9823
3489
5980
7817
10590
14943
14931
4612
2119
9091
8498
8436
11275
14830
5353
8215
14022
2646
8286
14473
5561
9212
1992
7598
2006
3942
10895
13915
9047
10497
449
6889
8174
4098
7799
5651
15265
1543
7310
5019
8193
14824
2612
8518
11026
6043
2892
10507
5011
10473
10886
5572
1667
9646
7589
10767
1670
9571
3768
9482
5022
8236
1094
10830
6169
3044
1091
976
9226
4352
11722
14750
1794
4013
2441
3192
10472
3979
7517
12661
7763
9784
3690
832
3320
3628
14888
10093
4700
12965
1581
11442
10309
6314
13121
13980
13216
1595
6947
14921
4640
5145
11756
4317
2341
146
2164
7637
8125
8663
1921
3647
664
2049
4339
4803
9068
10969
7322
6778
4864
13201
4084
14225
10258
15031
12468
8626
11711
8774
5580
14531
13779
11278
11376
2581
13831
9274
5566
14850
1978
4541
3397
639
7323
9849
949
14108
14290
3873
13491
7809
5000
5253
2334
12492
14718
1145
14392
2530
13321
12307
11238
11489
14494
12271
13684
3003
4668
1150
4645
8671
14817
15188
12001
11075
14787
13674
5292
9145
6120
14088
14849
2092
7254
7886
10341
3118
169
2496
11037
725
8645
70
7468
555
14726
4395
5783
8849
12994
556
371
10527
8052
7379
14571
11184
10914
11658
9981
11461
14864
13413
9924
14006
8554
8503
10557
15205
9952
12948
9804
7117
5074
4778
8112
768
1952
6694
5950
2390
3581
14307
11500
11179
12317
14095
4197
1645
14077
12945
7758
5150
10838
7884
7018
6023
8151
12118
14170
13794
12854
10515
2768
12214
1984
13608
1453
11636
3070
7563
9014
6301
3708
14014
13308
11385
7752
3604
343
5202
5867
12458
7548
7188
2692
13029
8283
3544
1845
2989
2848
2203
1669
12389
541
9328
11379
992
8078
13422
598
7693
12898
5365
2878
665
379
4720
11688
1261
10716
10137
11921
2985
14642
11283
11204
9594
6204
7334
4397
187
651
14977
7839
12185
5004
5934
12162
7267
8232
8144
11931
12867
14144
13755
14614
181
9266
8605
14950
4073
7550
12982
5472
1495
8454
8898
8769
14324
10541
1267
6884
15173
1233
10712
10110
12845
2701
6986
1462
13334
11048
6064
1700
11709
13070
8857
11610
14844
14841
11192
3791
4617
2084
6386
9446
9878
7572
1597
1775
2624
3643
4813
1554
12112
10453
10855
4419
13912
5704
9084
6360
7488
13291
3610
2089
3034
509
14093
10295
4297
14391
476
11183
8343
242
1002
7869
12926
11518
15195
2288
13901
6644
11874
5751
11050
7416
5952
4710
5582
9452
3688
5008
122
6529
11590
457
9903
304
11750
9766
13836
3026
6033
13996
12247
14580
4368
823
5371
10098
10385
1751
634
7430
13588
7558
733
265
12690
3984
13775
491
10579
13719
1363
13501
4240
12319
14387
4259
5416
13659
1818
133
1427
5413
5644
6149
3627
14305
9499
14603
13047
2002
13605
8496
1082
1943
4636
2630
7935
5668
11273
10436
6965
454
7630
157
5129
1304
11738
12265
1281
11001
11863
6677
9085
15177
16
6461
4359
4605
3957
608
3383
7248
15354
12967
3987
10138
9993
3064
9559
3448
11140
8958
4587
2178
12888
15109
2141
380
14376
4035
1060
2984
10147
14378
2782
3529
12585
5599
9349
10958
1357
366
10589
9390
10431
13125
10539
11380
37
9363
12080
11306
9428
2464
930
1256
11905
1894
1567
12203
13360
15324
7361
9
2558
245
526
3848
13562
8892
14245
7125
2030
5203
7903
8361
11675
2790
11765
2284
2955
14154
6890
2565
7531
8383
9170
13810
8054
7914
1235
1789
9011
1204
5214
5788
8511
8282
3389
9025
9510
10239
7081
4393
11452
14051
4491
3085
2226
223
12839
5854
2449
5636
6685
6339
11080
5027
3898
8890
12138
12136
13790
12183
7983
6902
1948
4641
11165
15304
9970
9270
3420
1743
2443
2118
9933
10067
3669
2270
13546
14164
11539
760
7635
15197
7287
12028
12114
2128
5838
7542
5284
2398
6318
13129
11579
8772
6194
1308
5931
12182
9176
4211
14723
5973
9836
2295
10843
1070
5510
4031
3728
11955
12205
13781
14304
2249
12088
5715
9265
716
12810
14518
5175
9707
8681
10657
15267
9871
7305
10917
2031
1292
6678
10759
9038
5953
8267
4175
6876
2870
2691
14044
9703
2840
3480
8595
640
12155
11933
7199
14270
7641
14242
1499
5425
12522
4633
8969
3925
14764
11215
7388
13137
12157
176
1437
10371
8546
1988
9731
4001
11816
8245
1870
5133
14891
5062
4045
8986
12850
13742
5103
9168
10311
9187
14026
12872
8477
1761
12731
6175
6333
12415
9660
13848
14877
258
9300
11277
12129
2577
9060
8883
1563
1201
3891
7359
5152
2077
6189
12427
1899
8201
2583
9043
5888
12316
13338
10159
9000
3657
6516
10698
4735
554
15315
2541
6210
11349
7095
8480
14785
7097
13971
11329
12150
3328
11348
7712
6544
7502
4606
10345
3057
14626
14433
1856
6332
14671
6226
7116
8514
14535
7969
8198
3223
5302
4619
14124
6353
3892
5361
5117
12106
7874
12775
14211
13548
5739
5975
14230
14333
12632
4192
3391
9859
3429
2470
8943
8625
10606
4832
15057
8976
9618
4437
1387
4512
6834
7411
11639
3968
14294
10329
13271
13113
3185
8322
11895
188
5166
2675
3804
4899
9238
5053
11176
9380
13025
7085
14438
5917
2717
4145
13000
8733
5962
7768
7575
7734
6931
8149
3060
11241
6752
12811
12924
12730
11551
4471
10997
5448
12759
3889
13077
9392
14818
5275
14349
12707
1654
13041
10630
4626
2968
13679
1238
11339
8483
12884
5849
10809
8104
1750
11760
1270
12621
5476
3973
5614
7391
15106
15030
2928
722
7311
13453
3684
4181
5976
12827
7408
10575
11548
1911
4786
4532
7686
9236
2292
6118
14292
10423
5164
14591
6260
15073
4648
1961
5269
14007
8965
7932
6158
8229
4148
10547
164
12293
12575
12099
10982
4318
8634
14198
2087
5183
4534
11708
14594
8429
9396
10449
296
4592
4431
14210
3167
5395
14899
9372
2924
925
6410
1297
8152
7780
785
3276
332
4611
5306
5666
2533
103
14659
10114
14336
14795
8489
11925
1796
11999
5922
9793
3950
6143
8417
4604
6719
11740
8312
11011
2230
13543
14396
4900
15126
12387
13551
14151
7887
1121
138
2416
253
1580
3362
7545
11844
6769
3490
713
4020
6740
12790
14947
1236
11737
14831
1424
8051
14771
15158
9651
13566
10454
7269
15285
1814
4869
7673
1628
2508
9597
11169
3039
11544
13539
14500
2622
9165
4952
9453
4881
13599
12484
1156
14419
8743
7119
11370
4123
1872
9719
5700
9264
10859
14455
11803
6854
7937
9106
15279
3903
14161
5945
14802
13011
13086
8655
11262
6531
1282
8460
565
6838
1753
15100
10877
14601
14690
14472
7632
4434
356
12194
14411
12671
402
4413
12820
8881
3514
12018
14680
7620
12324
7302
7861
5986
9455
8466
14646
8596
3197
14502
13228
13320
6299
3265
10204
9188
9953
1101
12094
11791
4320
530
7453
13879
5836
194
14177
3682
2422
879
8181
11601
1819
14397
5064
13479
12751
8437
2134
7835
4591
5224
6462
7736
12566
9988
14499
10936
14497
15217
10726
6433
7318
12438
15276
5853
8448
12844
1726
14050
14611
13393
12186
8915
443
9644
14090
5593
6084
7089
4957
2091
3011
9447
12435
6494
6472
9064
2400
2411
4456
8738
11039
3710
4332
7516
597
671
10054
13031
14700
1312
13737
4118
11864
11054
3451
5981
6069
14340
3087
12627
2184
6790
7742
12367
534
13389
4836
4229
5040
12668
15244
13716
6036
10872
11762
13333
257
398
14851
10022
8830
11725
13407
12713
3734
13348
9495
15005
4567
13818
10328
7012
9227
13148
1047
7431
9485
12899
2369
3189
7639
14605
8778
13069
9994
3008
14425
3088
13222
5295
4158
14879
14900
11602
13632
9302
6259
8670
13581
12733
1683
12900
14755
5670
3759
5891
4759
8308
7149
4840
14629
8920
11208
752
7030
6791
1095
11792
10185
8212
5793
12720
14470
8241
13851
6749
10700
7716
507
4377
14738
9454
2695
692
9596
9514
14148
3861
10774
4306
13156
8528
12748
6507
6109
1514
12567
4028
14408
5114
6082
11696
10972
13278
7463
9564
7144
4924
5045
7832
812
15248
2735
4132
9870
6632
6861
8065
10595
11623
10741
14217
9949
334
15046
14971
12516
7240
14959
11645
7120
14731
7778
10603
9727
8555
6850
3842
11618
2455
396
7707
5905
11007
14722
13223
2882
3645
8080
15235
10818
11646
12819
12969
1170
13511
12475
11449
1120
4154
10236
8866
3739
15048
11000
10776
13406
2021
9841
15006
1615
3866
10822
7524
3503
13218
7067
4038
11915
7459
9762
8955
3523
14837
13857
14846
5954
13445
1540
12968
5766
2623
8535
274
12257
10034
12393
125
14539
11683
3019
10089
6602
3676
5002
12103
632
14168
12213
12578
11831
13665
12179
12379
11118
887
5514
624
3102
9930
5421
5475
6864
10210
14195
11557
3858
9419
2179
8846
1346
2166
6059
3262
14583
1509
13852
3650
11967
6781
7918
13722
439
14062
11281
8524
14820
13523
9726
14568
4846
12145
275
3671
865
9520
10063
6920
9534
12761
3156
9095
9647
3869
5120
8940
2064
7424
8346
8665
12638
837
2461
3032
6957
10675
14426
4751
5782
11066
381
8820
10841
7856
6989
13328
8893
1043
7988
10704
2187
12067
10732
8431
5781
12587
4974
10883
9657
5851
6056
2460
5504
4811
11908
1752
3908
6661
955
10297
4354
6382
1854
4239
11800
7290
12376
2751
12336
11534
2153
8203
9617
7958
11116
6115
1829
5552
12507
9141
3879
7010
13208
983
7941
1868
10962
9634
8273
4282
2101
8119
15342
13478
6536
10162
12828
2160
11808
1518
150
11735
6936
8900
7627
14403
13307
13894
13366
8527
7714
3531
7231
12175
256
1760
6735
5464
9186
9611
9346
14882
12227
3367
14
5613
15193
10772
11135
1772
3983
7532
10795
7446
10108
2234
11520
5159
8617
4906
10588
532
7990
3893
13803
3506
660
6357
8079
14424
8331
7806
12824
6034
14072
834
7916
14477
3170
14715
14091
14094
7016
9536
3097
14479
12754
9664
9662
5758
14163
5750
7473
2884
378
11956
13111
8908
7611
10123
9110
15245
14592
2917
13118
4093
5818
11219
538
9809
14208
13322
1438
9918
11606
13411
12016
4153
2804
8369
4730
2082
9050
10954
6514
8091
3041
4656
12297
7715
1756
15336
7341
12264
8620
11187
6929
3157
11628
9861
9943
13750
10923
1008
10664
5091
4667
7551
2488
12978
11562
14946
11991
4511
10079
5868
1302
4134
3485
7823
1652
11501
14206
15066
10594
14679
3345
8648
9991
10574
12002
237
13556
10893
6302
9033
6731
5578
6833
9103
13015
12258
7773
14081
3166
9324
12674
3756
4355
13754
12397
12958
14866
477
4302
6286
4445
3155
3468
10203
10224
9260
4703
15027
10827
13317
7552
4313
5057
4002
10078
1143
1889
1338
3764
574
3547
4716
6306
11178
7718
6275
9090
14431
12780
5858
9902
83
2993
6389
11014
1413
11869
982
10986
14793
5920
6618
7214
13326
1083
988
15069
2462
12409
1559
7317
10734
10643
11326
2017
13921
4177
14430
724
8983
10667
1259
1611
12273
5173
14521
15322
8341
6231
6779
4553
13355
7366
13459
12256
2907
2729
1454
11174
6777
2113
10221
3027
14855
5215
4666
10278
4044
1173
11687
9053
13140
12190
2215
11170
5756
13486
9423
9697
15076
11197
6994
14729
11664
14359
1279
14858
13065
10666
6553
7107
6900
13645
10441
4293
13289
13974
1994
8126
9694
4945
6747
4256
2595
644
9114
13316
600
4021
2903
6220
7130
4783
3387
12782
8397
13073
13931
7054
5557
1869
8831
1529
1240
1578
637
6564
12365
11809
9631
12552
7509
5015
13460
5181
6176
39
7363
7925
8924
10705
12128
10303
8739
10410
11347
2152
13426
13884
12665
3232
7783
13447
13783
6492
2182
8909
6279
12550
581
1090
7056
1467
192
4621
9663
7526
9964
9082
2382
4106
13372
11266
4613
2589
11012
9929
345
9547
6049
3168
14010
7487
13231
7092
1085
10771
12230
8761
3141
9691
13170
9477
10633
5630
3609
6901
14445
5087
13839
3595
2137
3108
15120
7813
5640
8696
15065
7501
1624
294
9957
13494
8324
7840
9126
6512
10238
14111
4144
12073
15014
7864
10647
12506
5277
9361
4696
5936
4646
11368
1414
12985
1766
2518
5415
14343
10344
3090
11576
7370
1067
7753
5708
10042
7843
7443
13468
5216
9847
1275
6766
2251
8798
11252
10247
3999
6096
11254
9565
3882
6910
4050
7837
190
4576
12274
9780
10829
13773
1402
5374
4782
15038
8379
9721
14034
15312
15152
42
4983
6820
3974
11394
2338
12141
487
12816
11085
2605
7698
6652
4036
6522
10622
8737
12346
5481
6600
15327
15293
6567
8394
3294
10286
7397
8030
3836
2477
10868
13272
13734
6821
8615
12260
338
6089
6645
13382
4489
12356
2795
7695
12309
2052
7212
9744
4064
11487
2952
4075
7343
5784
13489
11899
12896
5906
7559
11446
4901
4728
5944
5104
3354
9383
7489
3376
6008
15142
13467
3029
2426
10071
4439
15325
7966
9221
12453
2170
8084
4638
6031
1573
5935
1593
4960
2384
4315
10129
12563
3941
11335
10308
9587
11505
14835
4764
5376
1466
10614
8925
5056
369
1376
7634
6086
12451
2274
7154
7094
13454
2070
9771
1516
10688
4307
3626
2837
4143
7744
3648
7330
15071
6145
8914
1242
6982
14118
6604
13537
9019
8228
4529
6327
8015
2702
5494
7829
6296
13002
5440
8255
4920
7877
7452
989
9462
2963
11205
1109
12411
1556
5937
1665
2159
2469
10848
5564
8599
8609
3314
14370
1811
11255
3353
15079
12802
9326
6588
3881
7389
8326
11307
9982
12593
8209
8728
14486
15182
1501
9490
2177
2885
5351
13867
1570
13685
10407
7342
7358
8500
9356
13586
8372
10097
8278
8877
7619
1220
5470
10937
6699
14156
13542
9622
3022
124
1417
723
10184
7019
12048
1194
6281
10192
8427
572
10148
11112
225
13776
3753
6502
7035
11097
11447
8328
4966
2374
8549
8841
12702
11701
1662
11876
6415
12663
1656
11270
2312
613
8894
12830
4694
14881
1167
9632
9672
11157
5174
14468
4756
788
5234
7251
5070
3870
10096
13432
14903
7265
4750
11669
14788
9550
7798
10677
6938
11492
3403
7593
6863
14421
13621
9813
12984
11223
6413
7073
13248
8683
528
10315
6182
2246
2871
14576
14321
9179
8722
8475
958
9661
6042
8090
8836
4383
12448
2536
12590
3784
1585
898
10013
11495
14047
7344
12667
7470
7478
12197
12330
5575
90
5933
14202
14323
13450
552
4909
12789
13159
10033
11937
238
10426
11692
8265
322
1478
13710
352
2609
9325
10889
522
1106
11358
3248
4639
12178
6420
2939
3989
1881
1351
11714
8952
13841
14483
10302
2534
6582
8502
14744
12019
3004
14637
1530
1941
10858
8797
6560
4818
3160
10179
13084
12224
10011
15157
6705
7825
12692
11799
12801
6003
11854
7895
14728
2949
10240
8755
4938
4022
5568
4851
144
2668
10846
12060
5866
10554
1842
1678
6818
7436
5442
10646
10819
2824
12381
3567
14707
12076
1098
6000
9275
14935
6894
2475
633
3243
10777
15174
7211
12995
1237
3644
6290
13018
5473
11366
13203
1892
6203
6953
1328
9151
6328
12159
12834
6271
1245
4263
11343
10140
12718
6872
13381
978
2651
1252
8808
8133
10608
10186
1017
3052
5490
1568
2592
14589
10971
14028
3692
3129
5241
4078
12341
5586
10782
12943
2957
7253
4827
9601
57
1088
4708
4180
4762
12752
7380
13891
9441
6215
15300
7661
7394
15343
14814
6919
2339
9931
6539
4889
12576
8165
3763
5468
11581
3364
12771
6966
1590
11396
6237
11374
10121
1298
2240
12180
2309
5786
5127
15335
413
5116
7315
11064
4203
14980
10935
11274
13359
12239
10191
1989
2266
14130
6816
5912
382
6315
12765
4455
247
9507
13296
3772
11148
8440
4841
2054
9803
13761
6711
15049
7101
10526
11815
3080
799
13277
4555
180
2208
8354
14238
7500
3046
12014
10305
13873
9202
1218
7701
9078
2033
14059
11891
10715
6212
12252
11428
13225
7195
7057
2900
2013
6937
7172
9488
11770
3062
11285
13520
10391
10528
14181
7706
10168
9131
580
5503
11887
14074
2173
13094
3025
2733
13182
4166
10791
9706
10376
9183
4000
14609
8726
6547
347
1272
11415
11980
4039
11189
4223
11456
12377
7623
5972
13495
3263
9305
6173
12021
8786
2559
4322
3789
3421
9807
4076
13299
10949
6587
12250
377
13090
8384
6270
6009
8933
7876
5294
12864
3030
8994
5569
6561
500
14621
5993
8352
15241
14735
4130
2901
8505
6613
8188
5289
11964
2813
2994
2434
5675
13123
7811
2982
1003
6487
9277
2779
7540
9735
2315
32
12837
260
841
5012
10927
3059
11260
5287
5285
7197
8300
7064
4981
13471
14551
8396
15018
9583
1364
1072
8560
6541
12461
882
7294
13409
655
11003
1139
11082
9722
10913
13561
6388
13930
7912
8221
3092
13593
233
7432
50
9711
6619
5576
7626
226
2712
5839
2124
9439
4743
944
2282
11365
9096
4400
6793
7588
11155
11672
8
1832
8800
10650
7933
2302
13357
6300
8320
7082
9826
13250
7023
2318
15297
7093
4986
1643
4011
12127
14632
13983
10457
3048
13243
1102
5592
2758
13963
14446
8932
7132
8451
2500
14350
7401
1550
7555
7959
12641
11894
6855
12551
7490
2081
12198
7456
8777
621
5619
4947
2888
3288
5252
1126
4632
14203
5458
148
11989
9895
8313
5678
11468
3436
2222
2555
1564
6948
3888
7722
309
4637
14332
15338
14719
915
9979
9444
4563
8862
8428
4791
2680
13877
7960
7461
4822
9384
11369
5573
140
2480
11462
9180
13056
10325
4660
4712
14065
3018
15034
5713
3706
6980
6914
14938
13646
11912
3770
5908
4510
11840
12529
5603
6620
10920
7833
5182
12266
1386
7703
364
14216
8422
6726
8116
4808
11929
1607
13088
8858
5752
10300
13492
11423
6638
11736
4624
15041
12722
13385
11353
11323
10836
7569
893
14554
10359
7249
8497
2529
12350
8176
4585
13310
3859
2932
5394
14087
11755
2935
464
2140
9214
7044
12741
6095
3219
13066
9041
4079
728
6195
5770
7961
10988
10470
10874
11301
14627
4652
14459
5617
12784
779
7595
14708
2550
1685
9839
7418
4717
1343
9940
5042
2305
7529
3417
749
5263
13911
13940
12608
4807
2669
14613
9736
5032
14029
2110
13961
1359
9303
9621
10938
14779
10379
8747
4062
3606
5219
6346
9243
4055
3221
1403
12486
1914
8449
15043
2584
8593
460
9339
10899
9883
6285
2759
6379
2463
8377
13555
10581
273
6622
13504
4635
7449
2378
6746
1432
1997
7421
9337
4299
3456
14089
910
15337
13187
6445
13064
839
7987
2699
11965
6148
14024
13386
1830
1498
2447
2798
451
11488
5777
12299
13373
12007
14697
12515
7040
2525
46
8966
11139
12956
4065
13850
2773
9101
1161
5085
10531
12726
3181
7994
5645
9409
13954
4206
4440
14487
14912
9413
8891
582
8967
13284
15149
6811
1852
12634
13524
14237
6334
10749
9399
14934
1118
3212
2599
850
4025
2451
9018
3388
9956
2657
11763
2219
8171
12472
56
3715
11156
13929
15331
2057
4849
14066
9421
2385
1626
5082
1073
11291
9089
938
14732
6852
14666
9684
7118
14458
8240
5994
98
12248
9123
12607
8727
5537
13388
6303
8907
10173
4420
1029
12396
3894
5342
14338
14564
2428
1930
9575
14538
584
11103
7680
6429
14457
7271
994
1874
13800
2694
5043
9048
8071
7415
12658
66
12165
15036
2373
5990
9216
6724
5698
9912
9272
4183
11083
8238
6454
6185
3051
4274
13028
3457
6054
1089
7148
13838
5688
6207
5102
2706
5315
10094
12119
12122
11327
5639
3241
14003
8843
2350
4350
6775
9341
3940
6877
2504
8653
6593
8281
9968
10640
558
12440
10401
6714
1738
11448
7981
12081
7131
462
8274
298
118
1370
13472
7549
4457
15289
6893
12096
13331
14104
8060
8705
4009
1299
5251
9831
4292
9864
5618
773
14599
7494
5587
12187
6363
1765
9951
9389
14507
4101
2544
1158
7770
8938
11819
11744
5390
6235
11076
15150
4615
8040
8407
3055
5831
5169
9242
2645
4528
885
13670
7821
13252
12651
4114
6282
3438
9016
2789
12918
14857
7183
8398
6687
3798
1063
1793
1546
13164
1286
3788
5283
11280
12514
3435
10050
7072
3969
7974
1055
4096
10347
6725
12259
11073
6874
2189
2063
951
5407
10781
4574
15269
14915
3016
10396
10959
11968
9655
5457
8507
12697
7898
4496
2217
2115
6504
2169
11777
12825
5624
1594
4454
13240
10027
6295
13269
3014
2154
2728
5327
9532
12023
12953
277
7066
6035
9293
346
8779
11161
9467
1531
7853
7504
7688
10061
10518
11172
14741
5196
9922
9327
2911
10948
7579
8561
1421
13744
8235
4825
14714
229
12439
7099
593
14992
11892
1551
8401
4333
2181
1906
10294
7728
10813
5313
6879
13408
4910
5817
13168
5484
6646
3519
3857
1051
13340
3867
6378
8897
9947
4508
8837
3837
15341
6387
2511
13102
4654
12699
6860
818
11781
5647
5545
7227
9612
10467
14969
13342
11129
1690
12120
13735
10288
11221
15253
10417
3964
14901
8687
3139
13057
11728
11049
3252
4296
5992
11249
12087
10947
4141
1704
12047
6592
1533
1653
4598
5804
6163
14454
9491
800
10509
4963
7163
855
10968
13380
3963
1706
7289
12000
4843
5856
12541
13398
4348
1666
4953
12015
14914
8835
10419
4969
3395
13019
14685
8471
4469
4367
1599
10636
4715
4135
9253
2383
8947
2034
10087
3279
5135
1730
109
11497
5869
4570
3560
1729
8587
756
9218
10820
4261
12500
8083
5134
2654
12714
6174
1942
10911
11471
13266
3661
6073
4583
8304
1278
5959
13099
9574
3667
1855
4110
3916
883
8572
11124
2062
2548
7126
14465
15257
6027
7455
9920
289
10490
3272
7774
14280
12054
14542
9196
4422
6377
8533
15052
10519
10437
9376
4951
204
12474
10502
4023
11336
175
4113
10826
8464
11036
3338
9190
891
2429
10355
5312
14422
1507
1254
14860
14829
3783
4589
979
2268
5539
2368
5874
2016
2638
5968
10684
6093
2448
12655
13048
905
12395
6658
7906
2294
13020
2817
210
12760
7581
10609
8766
10803
11718
12070
1970
2568
14550
4557
3517
3068
9427
11245
6063
15161
11591
5405
10369
5681
14582
7297
4161
1461
11304
8848
15185
7027
2526
2395
1163
12497
13306
5328
14786
6247
14329
6713
9638
2261
987
6925
2855
5261
1786
219
9723
7307
12295
12936
189
13726
13166
15268
8708
684
2941
7852
2490
3175
11105
8525
4481
13505
14681
13110
10251
9153
6668
4126
2009
12660
5620
13508
11830
8013
13845
6267
5325
6071
10828
8332
4804
5824
15086
14402
14073
6862
13364
5359
2593
10723
11951
8531
9569
6483
1912
2438
9395
7167
13098
9775
8537
8981
10514
3673
1718
5511
4801
1294
4024
10979
7724
10754
14219
4779
3707
10654
8042
1672
11305
7340
9116
3786
10277
8220
8271
6172
13951
8575
1617
3268
13345
9289
2830
2103
9751
2847
12267
2319
10915
2856
10736
47
9548
5237
5398
6470
6642
4565
13817
9484
11533
7655
3099
6859
3158
7667
4663
7663
5527
11182
11418
11053
10272
2866
2024
9592
4770
8114
3639
8494
2355
2896
15003
13169
3390
8415
7900
13788
7298
4722
1135
13063
10571
11123
4059
8103
11668
15349
9712
10339
2131
14436
2618
3082
4162
3440
13264
4017
1946
8506
8000
7919
4590
8794
7264
977
1022
14994
8390
11961
10382
13434
9716
13004
8138
11734
12051
13834
2176
3110
6503
9743
3752
4564
2897
8418
6760
10863
2531
14974
2142
6772
7955
5904
14249
3329
13391
14178
8445
4907
5665
4385
1865
13085
7260
1149
3875
13965
10513
1958
6365
7059
8842
10418
10725
13522
1813
14905
14141
14209
4210
10484
2102
3075
10566
9367
6621
1788
7244
12540
658
11337
4169
15024
8530
244
13052
8576
5156
7910
9814
11884
520
2279
7112
6892
1959
13487
12841
7395
14071
4677
821
14150
9948
587
8479
3282
11150
5039
6124
11247
6750
5884
683
14519
15137
2436
7600
12588
6498
6457
4353
703
9858
14566
10205
3946
390
14561
11918
12786
5886
1712
10551
5979
10146
1115
7604
11731
2576
5080
6765
13789
13142
4781
14405
9375
10030
4536
2845
14940
11893
13527
2491
12380
2417
2877
2745
5721
15339
13026
10866
11882
11251
11021
7228
4349
7162
10641
202
7090
13145
12829
13872
1928
13200
635
9681
8189
2151
6955
14001
4136
7571
14388
7166
2515
15009
12568
5200
7364
7812
2410
9641
9457
8536
13244
23
8433
5723
13558
13960
3015
8795
2666
13663
14322
6039
5482
13595
3589
6401
14437
14030
14655
14612
7001
4047
8790
7646
4788
14360
7822
10408
7719
7142
9147
13005
9967
10331
5717
8102
11886
12964
14769
6610
1153
10773
4674
1151
130
11691
4873
224
5984
2859
12817
234
3508
8069
13583
36
14557
14889
8129
10226
11232
13126
3202
12201
15088
10276
8690
12609
5949
5128
10860
8162
1999
7078
463
12763
11775
12177
8621
11372
7492
8128
1132
13870
6944
13403
6922
12027
9480
10857
13910
5100
6827
6499
8153
7989
2740
8207
10908
4497
5142
10851
2381
693
9315
7062
7184
1315
235
12777
2361
7596
1041
11997
5901
9880
6932
385
3179
13483
4149
965
8204
3896
4286
11858
2687
14266
9032
9191
7878
14725
1331
1605
6888
12961
2667
6450
13943
2190
8934
410
12849
7128
4116
3165
13293
10569
3216
8037
6402
13805
7590
14080
12495
8510
11846
7547
4275
6521
13554
6200
12459
14562
12795
4915
551
429
13594
5842
2653
8087
816
10613
10521
12124
13452
8781
14267
11720
2637
1215
4686
5902
4607
4525
9051
8911
10770
4217
5221
14298
3334
12485
14243
11704
3761
7146
12238
6630
8944
8875
8646
13236
7274
4265
1361
12167
11761
6984
10380
3130
7050
3407
12694
11845
4142
10296
11431
1382
11312
6805
6540
8603
10965
4150
12753
12045
3474
2736
2945
8585
4486
12684
10991
1592
11436
568
2976
5265
10237
704
13060
2342
9570
15138
12137
13336
8744
13957
11180
12444
9827
13525
12392
1519
12975
9525
14968
9674
1014
9685
11537
14116
7908
1455
13680
7760
3528
7417
9909
6990
2971
2516
1754
12408
9656
8694
1255
3330
1646
5556
9074
10154
10389
12042
8373
14348
11751
10564
802
14982
69
10377
4260
6369
170
3592
14207
3527
4435
5718
10483
5207
6166
12986
10390
6052
7250
1806
12058
3313
13370
4329
735
5489
7894
10699
7805
10989
3905
4416
12688
2362
2930
12505
2106
9442
9035
11338
14442
9907
5932
10976
12531
10756
9319
415
7135
7179
10884
13639
6255
5749
3767
8256
4643
4109
9606
3133
15309
1411
1835
12740
360
737
5375
11857
5290
10397
13184
14620
10072
2749
11507
3491
8996
13830
2071
12291
1577
4506
11598
14056
2672
7557
13455
4381
1490
10164
10811
9605
4388
14972
246
13061
2821
1197
6995
7947
10607
2029
7617
9881
10669
12192
8363
10682
890
10691
15111
9567
10655
5643
7375
10708
9316
2032
12275
11741
7242
12072
13647
3229
3733
9543
13493
8123
7818
5406
3283
14868
7580
8355
10133
6977
6926
6201
7587
9487
9377
6738
4996
11412
9410
3173
9786
13536
2185
13377
5147
13855
4552
4212
13825
9779
5742
1893
3246
4651
11614
2557
10020
8113
13112
5815
3664
5978
14045
5890
10987
3510
11267
9140
7964
6426
2942
12928
14706
11969
6682
14748
5016
9659
11512
2811
11898
3864
14247
9288
14516
8224
14233
8050
8041
7139
7448
1380
15
3336
4094
13795
2300
4137
13394
8803
3991
5230
5384
4741
7486
8709
12776
1213
7836
12724
5167
1887
8020
2585
9884
15275
6946
1857
12326
11227
13890
14215
14674
13662
13507
8936
445
10880
10172
3819
3210
15249
9071
7485
14652
14999
11922
13130
4706
7170
3492
13885
6967
12757
5825
10739
13303
9412
9001
3204
3850
2053
12132
5301
9702
8036
10076
5957
14515
622
2214
14990
15303
5625
7576
4097
12089
1176
3149
10815
7931
4179
14834
1398
1203
10517
14394
14112
4662
4867
2538
11977
15180
10373
8493
14309
4360
7075
3990
11545
5588
1133
14776
14043
2761
7108
14398
9061
422
6956
1042
7083
8569
5771
6808
11866
9998
14015
9438
5799
14880
14377
3385
11313
12912
10793
8917
8374
2899
9269
394
8880
4484
85
9576
7314
9595
2225
2628
342
8669
6971
614
5732
3249
5855
7647
3919
7273
8258
2981
10256
1833
7677
384
7523
617
5498
10069
132
1721
7759
4398
14773
7381
6407
585
13513
13246
8764
4965
6996
7633
11627
2644
847
8628
7745
7789
5594
11542
2146
14076
7292
6866
7725
5296
6392
2055
3714
11573
6797
4247
2671
14199
8697
10530
11934
8093
12147
10966
8566
5382
8403
6489
8759
11867
5461
2881
549
6941
6952
2075
4049
13309
13132
1791
5034
1566
2739
2995
6218
8490
15098
1900
11825
7433
13986
5875
9077
12232
7681
5549
4740
5655
6770
2660
7360
7349
1422
8314
8395
2832
11236
11812
14965
4594
10198
11843
2275
5157
9164
3587
263
1778
4919
7991
11288
771
15228
8095
10897
3209
11739
10440
14840
1601
10604
13687
1735
12338
2662
8660
14196
14717
5305
5844
5432
9201
10409
10113
9643
15286
14660
13628
5532
9718
11506
3186
12813
6116
11994
456
13097
1257
1920
12421
13837
5429
12895
6880
4784
15277
6565
7999
3665
10879
8014
2252
8718
13643
5570
12329
13860
7299
14630
14276
14856
5987
1247
1644
1210
11702
15170
1353
3655
7973
10720
14140
341
267
6452
3603
2425
4356
6979
1330
4164
4415
6555
1066
11458
11411
9563
3762
7015
9978
13387
13339
5960
11185
3625
1995
508
7377
2036
49
14650
3721
8884
12521
13517
13410
8187
8234
12535
14190
15166
10799
9102
6364
14798
179
10082
10420
38
12105
10100
14939
6739
65
10601
13503
5535
7694
5773
6298
12126
444
10099
2862
7362
2909
1797
12525
1536
3705
11294
8136
7070
5266
9533
10765
13592
8115
11703
6424
9829
3934
6029
4527
5528
9535
8117
667
8689
10752
6136
6338
15019
13138
10901
2967
14526
14998
8178
4410
3193
11532
13858
15334
11584
5463
895
14704
11682
2857
14522
7515
10422
5811
8148
14279
7658
825
4995
6734
1141
3995
5926
12901
1850
13150
4171
5293
7098
8668
6999
5505
11793
7356
5229
14106
10421
13538
921
878
1482
1123
1374
15238
3473
87
14312
8750
1469
7866
1944
8532
12228
11450
143
7819
5590
8950
12954
4010
5387
1195
14752
12503
8239
8329
1285
11727
14085
1866
4485
11942
6050
14372
4235
9876
935
11592
2439
9045
1804
12823
9107
1044
4443
738
9311
9194
13956
5843
11904
11938
10299
1824
6796
9840
4502
9069
10216
2271
6703
7279
3672
11096
2690
8679
12652
14811
10253
11615
6308
2521
10021
1831
12645
7940
14987
6078
5386
11752
1033
8472
9234
9917
5591
3162
9894
14258
11258
4855
13473
6768
8076
8088
8122
10474
4432
14128
9075
4081
5727
10600
4357
7743
7278
10007
8953
1166
1642
11616
8420
7514
6723
12871
2948
10372
4417
9088
10560
8345
4584
5369
3622
13107
8179
627
2191
7304
14794
7069
11585
3357
831
4409
12369
4157
1974
281
9199
6307
11051
7962
3637
7597
12937
13606
2283
7543
12838
14493
14985
1332
10733
4665
529
11883
7713
5477
8590
1456
5010
1884
254
12432
14439
13519
317
2458
137
14670
3332
7533
11443
9778
5991
3452
6269
13757
1065
11631
13206
14415
14661
5530
12767
12436
7921
9013
1189
13802
388
5438
14797
4521
7462
10678
12455
11643
6214
10338
6841
2495
5522
13276
6041
866
5916
11143
11229
8748
4535
13600
14784
1084
1587
5701
5612
7068
1326
158
5013
6208
3815
216
10262
10745
3394
7650
3809
3775
13723
5235
14005
2297
10202
10751
7017
3853
11568
14175
1759
3315
805
1336
11990
747
11680
13985
6537
12135
12592
7503
12544
6479
3700
4026
7631
11481
8484
4499
916
975
875
12476
3851
2839
2908
2613
918
11464
2380
2432
11619
11902
3419
9800
8017
4376
1768
11084
6469
2512
4631
7808
2044
10190
14224
5939
8538
4705
3599
3562
2992
6909
428
8515
3646
10981
12196
3123
4308
12548
13172
15002
185
5267
5743
3605
9378
1733
12603
4476
4446
11209
7882
1910
863
435
6414
1309
2914
13176
2056
13006
13533
13044
13947
13681
11438
14125
5735
6190
14701
15201
7369
5731
10833
1485
13759
2933
376
14545
13049
5736
7113
13696
10926
4085
2265
6161
618
3125
2188
10243
11508
3462
7071
6155
10844
6933
14092
2711
12866
9842
5092
12594
8935
2575
8196
4930
12296
5852
3335
8242
14683
1917
9204
4003
8873
6836
8186
4187
10943
9566
10386
6686
1714
2860
13323
13743
1517
12406
5584
10024
867
147
8740
10611
14941
4042
8108
12768
2059
8155
8025
13212
9996
11259
1955
1116
14559
14656
6513
8385
14041
5408
4241
7300
2806
5130
8409
7583
11588
4954
11747
11268
766
1931
9113
14038
8344
896
864
5998
10370
12311
9573
10931
14567
2849
7182
6813
14448
11985
13433
11935
13607
1715
11651
7824
1362
11837
7479
7567
11065
14665
1249
9298
9579
6798
8597
12332
14975
5835
6607
3180
14310
8827
5502
629
12025
2748
1571
1223
544
11531
9995
1936
5797
10764
6072
4971
9026
5028
12547
10862
2048
12226
13032
4517
10248
8248
4452
12796
12470
4814
7881
14244
14711
6236
12131
13906
13079
7235
525
12029
6168
9209
3411
7562
3732
9105
7951
4926
10047
7084
14326
9811
14506
6076
74
1710
1986
11375
12894
15093
4816
14765
1037
3769
11981
10660
9792
11008
2394
2683
12482
11788
14602
11334
10219
1406
2453
11125
1774
7102
7065
6488
13147
6403
6680
8359
7915
1086
2409
2097
6510
3580
11513
496
10010
1957
11320
10842
11045
4324
5
9558
3065
15274
5108
1812
8435
11243
15316
11055
14925
4225
3109
3620
8589
6845
14418
5467
11930
14474
9406
7275
13580
2535
440
205
7041
9770
5049
2554
472
7147
7901
11920
7136
3986
8583
6641
11240
1318
10559
5900
1763
1755
9916
8806
2220
14308
1661
2100
13131
10275
743
1815
2763
6368
6997
5149
13177
12466
9986
6557
1888
10687
5168
13093
4586
3009
8964
3962
4766
1112
6550
2485
9616
6624
7565
4472
13585
12582
10758
4246
14412
5778
3000
2506
5084
420
156
7841
11331
3709
12399
14274
1127
14032
7232
1395
12424
10301
3937
1633
2239
11265
407
15184
11364
3324
11309
10629
7957
1314
1419
1538
9296
8305
9756
5095
6239
1630
14110
12511
6660
6021
5144
9335
14107
9229
9352
6371
1547
2775
14574
15029
14384
10077
10624
1808
3169
14218
1159
15081
8661
10792
3796
15147
11719
9808
10132
12573
8678
1675
4069
10573
5940
11939
3161
6272
5276
283
1013
9219
1388
14979
4139
6144
418
484
3533
10584
3256
13916
162
1589
5331
14745
767
10903
9258
9972
10703
11634
14296
1034
13075
473
6773
13414
13378
10510
15011
5562
6372
1525
1837
10012
10535
5879
3095
2126
8557
15134
12456
5469
1691
12322
10085
3659
11662
9273
5238
13827
6530
5563
3981
11357
3163
2163
2918
15181
10870
14964
3725
10153
13596
2180
182
9334
7554
3078
20
14204
6180
7229
15302
11171
14984
3072
14886
11121
13257
4237
11595
2104
9178
13541
3128
9257
2865
4726
15129
13465
2212
8627
14586
5628
5393
6341
3897
14212
13226
9851
13199
5143
14937
9330
10885
8259
6817
12352
13502
9629
8622
14743
10620
553
10900
778
11287
3922
12056
11522
2582
7180
2757
2366
13477
6589
14705
10429
11158
844
1303
13038
10469
13787
15326
12564
3240
13034
6477
12442
10796
11022
543
14756
5753
14291
3936
11166
10825
13587
12347
14176
7848
4228
1502
10346
13892
10835
9006
8568
6390
685
10740
475
14057
971
9404
7087
7327
9497
13109
4856
7904
8640
7413
4991
8066
12865
12208
12677
12104
6825
11167
7272
311
15062
1504
6651
10867
842
14060
1939
11530
9589
3835
11451
13043
12373
5696
9503
326
10189
10037
1722
9990
1342
3184
14875
13530
2206
10448
13420
14951
7365
13792
11119
14365
3453
5801
13230
4950
9381
14357
9081
9625
914
151
13211
9522
13989
6202
9671
14331
8702
14018
10070
212
4402
5288
13807
9433
14381
1050
3218
8254
5519
14924
11571
10536
796
4830
1019
13053
7982
11613
12939
13058
172
858
13975
12574
10910
7670
15056
8765
7209
9642
5595
22
12913
9083
559
5001
912
9403
2958
9501
11778
11319
7871
1168
11984
3554
3147
6103
9017
11699
3488
8658
13881
6322
12700
5989
15318
7338
9568
7178
9649
13144
12992
9198
6650
4914
6099
12242
3507
786
6590
7854
12628
3909
3433
4634
6562
6853
4427
12934
5680
9267
461
13039
10916
1904
6664
15348
12477
286
9211
798
642
8038
152
9189
8141
12815
4057
8317
7105
14013
908
14174
4746
3691
8350
12364
897
9523
15243
6659
14836
10217
7293
1916
7536
9925
13564
4775
2473
8600
12797
8716
8298
12429
1371
11817
6098
2088
3270
12914
3074
6362
11214
7890
276
3862
8180
3171
318
5826
709
3566
14371
9598
13966
9130
13780
6648
11046
5501
6930
15047
2805
794
8706
1284
506
7582
4399
8501
8351
10053
9207
10786
840
11820
1431
3306
13760
6973
557
357
3590
8247
5364
2150
2403
7748
186
2752
8486
2255
8008
12263
14138
3944
962
9072
9556
14427
1479
4987
2111
7615
12410
1542
12693
11248
8231
2162
3996
10207
5176
13812
12518
3985
6672
8227
5795
9658
811
11936
1940
7815
11923
2112
5195
3043
10546
3904
13854
2231
15247
15085
15262
2011
12878
10477
6508
11216
3442
6873
6125
2564
11090
3735
9215
11865
13415
7750
9518
11988
13856
4780
10218
2386
5426
11617
1310
7042
14647
13574
9977
8833
10760
3352
13175
1463
3038
2938
72
8319
7668
5650
10479
5961
6324
3634
4465
3998
4653
2636
10139
6028
2198
2012
13678
6417
6585
6802
6981
6316
14993
14813
15208
14205
14480
5687
15211
9278
1694
9007
11586
11392
14854
2298
10967
5096
872
15124
1142
5878
5622
13207
8190
5877
155
12640
2774
7058
11806
11953
15156
11345
12363
7238
11298
12146
3190
829
3956
11868
2149
2336
7122
9286
8323
14364
4622
1513
12243
12993
11826
2510
9541
10142
7720
1074
13590
7496
6743
13239
13988
6653
697
13944
2625
9282
1433
5450
6265
5516
3795
5372
3831
13213
12034
7337
1081
2791
2041
1108
14513
29
700
8563
1621
6617
4905
15118
11024
9010
9764
12880
6759
5446
9635
10280
6437
4016
9150
14658
9730
2467
10592
8010
7022
1879
6800
4384
3829
13375
1977
13010
2289
7239
2760
217
3928
1625
14762
10332
7652
3231
9740
7776
3182
1448
3959
13462
9252
1953
2343
14240
9899
12745
13253
9938
11212
10618
3361
2192
514
3323
15022
12272
1277
6696
92
11377
7171
12619
1848
13349
6767
11910
3821
3444
12441
3203
5368
7708
2193
14904
11025
3409
4450
2607
9855
527
9469
10181
8421
8896
7350
3502
1105
11137
6712
173
2211
8182
3737
3465
862
11661
2020
8413
4404
10865
4658
6616
12498
4789
3662
1771
3596
13675
1475
3069
3552
7746
8099
5491
2454
9544
200
4680
5262
4857
67
14616
9785
1225
14894
1701
9828
1840
6958
13609
9294
7622
8882
9239
15296
4119
15132
5240
10267
15190
11766
5894
4934
8642
9619
14528
3049
261
6425
5044
4173
11188
2947
1843
12657
4588
5189
3689
7711
153
13470
607
12463
14581
12204
9580
351
1039
6007
1251
3045
7926
5063
1234
5927
14847
991
2698
10787
291
2379
13114
5462
8785
5389
4835
1515
5499
3127
6951
6586
15040
14699
15162
3678
13704
12695
9063
14789
5088
474
1185
8257
8577
11954
13016
12502
2223
12614
9820
10019
12558
13294
1990
13036
10450
10501
8980
6591
13509
8863
13633
8291
6558
3458
12685
12328
6807
3749
11684
3384
3652
1244
3441
1993
1056
13054
11498
15103
14135
10810
11206
4406
10544
6134
4080
14358
6554
2025
14101
1015
14395
12687
3470
11698
13220
14653
10994
2722
3579
14063
4458
10249
11972
15260
14255
7
5722
12556
6823
8177
5431
5357
7187
4701
295
1657
7920
3089
4734
14618
3745
11787
13116
8270
9555
1378
5606
10160
7152
14504
13384
7033
5073
14231
14379
11900
14399
9200
13518
10255
6665
3822
9405
10475
15171
1329
7373
11062
12917
8127
10314
10066
4483
412
4842
729
5185
4083
2000
8565
5697
11308
3191
3785
7564
8266
13700
5076
5424
2591
14607
4956
9869
5264
5703
5755
11441
10068
933
13446
14407
15288
2743
14109
2708
11499
13046
12664
11410
4043
2713
8814
2766
12788
6119
5242
13194
11514
9537
4549
8216
13978
6886
2161
4690
11144
3344
14815
2486
1045
6481
8370
4882
694
8045
6044
9185
15127
7740
51
13490
10119
1696
4421
10493
10683
980
3856
1790
7325
13655
1265
9698
12962
1956
917
4346
2026
1742
6094
1182
10778
4095
1333
880
12512
7996
8161
10400
13139
2940
4858
9100
13785
6905
4390
6625
10018
3178
1122
2037
3211
4880
9250
11318
5711
13192
13896
12308
3518
7285
54
14183
5370
14780
15206
10340
13251
14751
14688
1322
8424
479
3663
533
2769
11478
10307
803
3635
12520
14361
14691
15199
4205
3818
8456
13418
12620
11839
11016
2610
6325
2332
11433
9368
13008
861
4984
539
8023
6079
6147
15164
2738
13534
2493
14257
13952
10193
11732
1926
8731
3305
12579
5671
6974
4787
3951
1484
6330
11279
9146
1202
12662
14842
10616
10044
11261
13254
1140
14929
2406
963
4839
1147
14335
9932
9205
6959
9336
9087
9628
2503
6684
6219
11516
9070
14011
13105
2227
6319
5335
8616
7505
1693
4488
12809
1836
6707
2167
687
3642
10362
5995
3036
7911
5928
2606
14617
9732
15240
7164
12887
2310
11652
661
4890
12095
13748
6631
12479
9259
12977
7266
10031
13081
6294
5534
678
10046
1749
783
11878
9046
10847
3035
1737
8032
409
10995
502
13823
14898
12043
3720
10246
5054
13627
7444
13343
2065
11554
7140
1503
6983
3482
12030
680
7591
12842
8131
13918
9521
1442
9825
4188
10929
13625
14380
10500
4054
7875
1171
2360
1526
2802
14393
11058
9890
9173
7520
12113
3573
3900
9795
8840
11998
11818
13318
7970
11244
4389
14325
9313
481
14604
14852
8954
12471
1114
4374
6913
11650
10274
6350
10485
8867
3807
9098
4266
5418
10152
2641
3341
14530
8261
8434
4548
6633
209
12294
5322
4561
3953
9590
8414
5396
13642
4682
8279
10695
12493
485
5820
2886
9758
10728
5805
13682
11404
14911
5058
1800
6
15308
13711
9391
7257
10405
4242
5883
12581
12083
4968
11689
11773
2196
4985
3063
2617
10455
6533
11971
8470
10336
4165
5654
14100
9777
10975
7685
11565
5367
7480
4319
14678
8276
13376
9073
6762
8028
953
12331
14102
9962
15096
12372
14382
5657
9002
15219
9401
2139
3623
1975
2922
5209
13404
4718
7584
11515
14944
2620
10395
10245
3271
1138
6710
3766
2721
12721
13275
12289
10746
3446
14821
3454
161
9769
6152
510
6636
11666
3611
13671
96
3373
11237
2174
9508
8293
2542
13083
5430
7862
8649
14585
7077
5194
5160
9593
11790
12101
1119
13565
8097
8629
7938
12510
2647
1689
3883
9143
8700
11013
5918
7280
8828
8734
84
5733
8137
13103
1705
2353
9350
8499
1369
6068
4878
7048
6574
2483
2820
9944
14828
12791
14002
4140
9133
7190
6809
12156
5754
9577
8175
2838
10909
9506
9867
14873
2920
11311
3847
5988
4327
3800
15035
14248
2047
8285
5119
5465
12883
5948
1049
14165
12303
14848
13919
1555
7011
2067
3839
8823
2649
9919
11804
8753
10591
10522
15007
6060
2718
13290
10403
9489
5441
9357
6695
8223
11974
15108
4537
2038
3717
1317
4041
7006
6732
14770
6496
8776
13217
14260
2879
9939
5791
13897
10944
9120
7354
470
13808
7998
4285
6337
198
15026
11408
8391
12630
11782
6701
10625
984
8749
4337
13040
13709
7779
287
5553
9910
5041
11730
4077
6447
9121
10430
11621
3660
1976
314
327
12803
1038
13797
14373
12870
11325
13174
12572
4243
13532
5794
2078
8601
9169
8194
10141
6917
10707
7649
5864
7786
9414
8889
3640
4647
2377
4194
8330
11653
3412
900
4280
4929
9626
5767
9747
12606
9776
12154
11131
2244
290
10233
8146
1048
11242
3401
12433
11529
13092
149
15105
2571
3575
5899
10361
12569
8641
2655
12428
10337
4921
3379
13106
9474
10898
9680
6640
227
3121
3846
7326
1728
6112
6397
14482
15252
191
13705
6465
7578
12626
5565
8762
4396
9036
8118
15298
9059
12426
13658
14048
12549
8698
6263
10504
10105
1739
8056
10201
12360
6081
6764
9494
3813
13939
2039
4769
2640
6065
12480
14805
12499
3217
7967
3422
6347
4772
2852
3799
1922
5610
34
14541
2489
3526
1481
1216
7464
2333
1246
3107
8552
12533
11159
1816
9445
11546
14736
5401
8768
10719
7610
826
12836
5705
7233
2412
1960
13154
2291
12164
15328
589
3838
4771
2404
14887
13242
6916
10356
4530
8473
10357
10984
3152
751
7208
10933
6132
1230
10934
3374
5334
11973
3145
14070
690
6784
2650
12711
7403
1636
5492
1668
3031
13729
8942
1891
5310
14926
14799
7850
13868
14016
6601
14783
12772
13552
3618
8553
6427
15353
13059
6234
5513
2658
9203
12312
8707
12246
14759
5031
6480
14498
5538
10229
12117
7803
3765
4577
12998
2307
2465
5699
710
14475
8608
7393
4544
13864
8579
3619
9156
10424
2337
6013
10135
6563
11224
15072
12085
4311
7451
10323
3624
4625
4490
4794
10333
240
11608
698
7262
8349
4597
5963
11503
4129
13448
13771
3296
10735
3198
899
14362
8459
13027
1839
718
14025
426
892
15172
911
14936
806
4727
4861
8742
12244
11426
7599
6490
1680
13798
731
6572
3426
12108
695
6674
11388
5225
6763
7243
4704
9623
10906
6628
8147
9974
13238
8327
820
5555
2893
4503
113
6842
15264
4610
9588
3398
9171
8009
9466
10465
4964
3260
3814
11693
3151
2245
11154
774
13977
2843
5787
3333
4291
9108
5061
3295
5148
12856
11113
7159
7255
12174
8218
5161
430
3563
333
9232
12611
1867
4973
8951
5674
11002
6634
550
11303
959
14149
11393
12269
15136
8295
1441
1650
1390
13544
4911
10553
8885
10446
13301
1160
4967
954
11794
4231
3687
9382
4284
12333
14976
4773
8930
7203
4111
12781
2553
1622
8582
14853
11460
8214
4676
2723
5445
2570
1702
7286
13115
2351
517
12946
9208
9029
12530
993
7727
7438
11538
6164
2547
14774
9531
3614
3912
5344
2724
12624
4522
9877
14401
688
5807
12892
5106
4040
8578
12049
14872
14355
4507
11596
3226
5466
14734
3966
13395
8495
414
5507
3449
6277
10102
1784
1649
1196
8275
8143
4325
6903
7428
13972
5983
8571
11625
11970
411
14313
14466
7863
12833
4581
3242
8337
302
2875
5897
9578
4213
8442
11707
2344
5779
5213
1232
7566
12773
10327
4328
5554
730
12212
11072
14429
12739
15232
12321
7525
7114
3325
3871
11344
6942
2401
5822
14667
8771
11569
10124
13826
4018
13550
9582
1027
560
9584
7396
6623
11130
8650
8290
5876
15087
13603
4369
7729
5910
5233
2842
1209
6534
7704
13796
6046
12659
7079
3914
13076
8741
7422
2731
12923
5023
5661
6950
8124
306
4515
14654
13648
9527
269
8868
11056
10850
10283
2035
11190
15278
9323
11128
3347
12434
12625
10960
12526
11106
8063
3948
13481
7028
13813
2237
14807
10156
790
7934
8529
9430
11102
12794
8672
12202
10670
1736
14035
9397
12151
2974
6744
12583
1522
11386
8096
9923
1859
7538
14619
2923
2322
416
8303
11315
741
4414
12524
262
4916
13134
9251
13832
1544
9370
24
689
3443
13197
2498
2272
11559
8467
14297
7737
10170
2393
6704
6788
14432
15077
12539
11217
7954
8202
1487
1708
13439
12951
758
3366
11589
6497
601
14262
13255
14127
11881
9134
14268
14471
7216
1692
10790
6292
7053
7870
10234
12219
9292
12513
13463
7602
535
13651
13618
6304
8636
6070
6453
2626
5921
4270
6001
6061
4425
9955
4922
4893
13926
14300
11300
13268
4234
6230
7495
13570
218
10197
9513
6025
231
2168
9862
3360
8316
5642
9898
5600
7194
6217
3656
745
11644
10766
12425
9863
3423
14662
4531
8612
2999
4463
15216
4451
7382
7796
14385
2072
7037
436
13128
13080
1
13365
5118
4725
5551
13698
9432
3493
3410
5417
3617
7201
6709
1632
2269
12597
2247
904
2014
12618
2433
2523
10750
5003
10648
6804
1473
8318
8086
401
1262
4833
8462
1545
1688
3632
8906
14970
2573
12996
4193
7261
14404
12404
11034
669
8302
9997
4202
4207
2833
8426
195
8923
14447
6344
11290
13928
14236
7106
1030
1834
3551
2934
2980
5090
545
2114
3568
13804
9787
14283
8815
4279
6885
9039
5768
14315
3372
7000
12361
405
7296
11384
9420
6110
9502
1695
871
9080
5930
7873
15140
14967
8272
12254
12706
1006
2236
3834
3747
11593
5716
13260
1574
5456
241
4373
13153
11459
6758
1012
8816
5162
6244
6691
10805
11553
9358
939
11726
2027
3499
13629
10761
9772
11200
10854
5373
14271
15287
8588
9882
12320
1177
7110
8913
4806
6216
8430
2616
5769
13390
8277
6398
13767
13617
2876
10348
817
11035
361
7656
7052
7662
546
11563
12742
8714
6366
9184
13846
12882
6385
11371
4152
349
4618
12952
7625
10459
14954
4321
11
450
1327
117
8799
4972
8946
854
7553
4546
720
1979
15323
13475
2001
465
5137
13311
2815
10384
3500
10298
10438
11629
7258
13270
15075
14668
11767
2372
6165
8399
5776
14874
15251
3913
7321
4520
7080
6405
10701
348
4303
10508
10055
12004
873
14330
3312
15145
5197
14461
12142
10831
9132
7927
10586
11959
15191
12889
11475
1465
11141
12555
682
9058
5550
5304
4962
14197
596
2329
2960
10980
11089
12386
4005
9992
15203
30
3561
9985
315
7669
8826
6146
10074
1864
14812
3824
12351
9249
2213
14214
6511
7574
13427
4933
6074
3884
4287
14606
15321
1965
531
793
11391
4068
14406
9158
570
4719
1511
10059
11862
1809
7508
11032
114
4977
666
10558
305
2703
4250
11875
3792
7420
1407
14989
1828
6795
14625
6870
9693
12334
12925
17
6911
3023
6475
9172
12209
11909
3126
1428
13941
483
11359
6649
3794
3255
11577
13179
12090
1155
2700
1100
3535
2778
12358
7733
5309
11239
9290
14096
9866
3746
11880
9509
11006
2058
2975
6463
6419
4978
1679
14893
6391
3738
13367
6030
2148
13553
10492
7690
4767
13401
1732
13728
11272
1349
856
5997
9604
13528
13819
7306
5775
14532
9125
9761
8659
6523
11835
15012
8657
789
11916
9546
12681
4070
2913
12414
282
12035
3726
8043
10532
13567
9905
10912
1949
8789
15320
5632
2074
9398
8070
1954
14068
2019
8368
11695
1319
8664
9738
7675
11383
3681
2705
2725
12301
4560
5170
8007
3516
3810
5669
11758
6878
11289
14021
13638
6142
10491
5635
3205
6439
10644
2209
5577
7942
6323
3797
10208
13219
6843
13396
12686
417
1224
5067
6395
8811
6331
4074
3537
1206
14800
923
8676
1905
849
14221
5124
9561
10685
12430
11444
4295
2218
11594
14548
1031
249
3740
1902
368
4294
2964
10442
1849
6871
4254
13188
11101
12450
942
4424
14923
8074
6455
13292
5291
6976
10907
13442
7036
2452
10149
5691
9700
14933
4184
14749
8791
15045
10293
9633
14159
10270
4467
7205
10576
59
5709
10744
4447
11842
102
9728
3311
780
11033
2720
3694
4616
1341
12163
15117
4821
12344
4107
1036
7055
14908
2135
4895
13287
5471
4092
7629
14991
8782
4749
4
14927
11749
4364
6058
3546
14742
7385
8132
13575
13202
801
3291
4815
1450
10552
14624
1528
8559
12188
4932
13417
12460
8968
13691
1165
1192
3699
2756
1248
10832
10439
7014
12172
6506
11477
9959
2258
10729
14133
6408
14253
14983
5038
14278
4146
3572
12755
9832
5837
1452
14760
1699
8410
996
2144
14191
1532
1276
3234
14246
14747
9054
8540
8111
4795
7303
8564
14823
11828
929
10942
7857
1606
480
10839
3424
8159
6209
446
4896
14009
13623
3582
10343
1273
3101
15340
7437
13731
6614
13990
8756
13423
9627
5236
1212
6730
8019
14843
4500
8205
10963
14019
12371
6020
8284
13630
11099
6017
10871
14505
4403
5404
498
12631
7643
12571
2781
12691
10265
14223
13314
15074
13265
2863
10130
10213
9099
2953
7997
7288
3400
9280
2079
10757
8168
11004
13050
4104
12734
3230
12375
1430
11235
7659
15237
3280
5896
2539
2133
567
12200
2652
7767
10462
2719
9865
9648
10785
7429
1023
7791
1596
2621
5689
1493
4198
3649
12610
9637
3612
8876
932
14120
2431
10525
748
13636
11979
15042
453
2132
2430
3076
6446
10318
2898
7975
1521
3455
10310
12804
3316
1367
15266
6258
15224
1219
285
10062
12950
15351
13765
1393
13999
8002
6313
9470
1148
12053
14552
15255
12487
4874
9763
5257
5495
8845
13023
6518
64
1822
10637
9602
13718
6702
2061
12949
2868
9479
3119
15097
8465
1619
5521
5179
12107
11706
11316
9984
171
6383
12240
3250
13482
3778
3965
3774
3899
3466
4596
2242
11177
3406
11784
13626
10896
13351
15101
4568
14792
13799
6088
11093
1767
3593
8478
11413
9475
14610
11599
13162
5571
3697
141
5308
5523
12496
6542
14547
14366
5626
11389
11746
5676
4323
14913
7204
3447
7007
7827
1598
8809
8166
5380
8970
12710
6643
4430
10330
5925
9306
3363
11271
8082
10435
14389
11491
14643
8635
9443
14293
727
13089
11417
2147
1107
10939
7606
5870
3945
12449
3007
13936
12337
1937
4347
10956
3416
13920
14712
12873
4904
5381
7200
12861
562
11859
95
13498
4566
7792
8521
14252
1620
9906
10864
2145
5903
5282
11282
12577
4837
14838
15229
9794
5349
12643
4222
10585
5847
4826
4088
9679
11362
10285
6789
1996
5172
7336
7731
5861
6978
8763
648
2880
5107
15110
6351
7277
2596
1396
9678
1076
9553
8995
4468
777
14259
203
2631
7402
3686
12959
3142
1005
104
10222
14909
13979
990
9024
8865
5434
5459
636
2327
8452
4547
10090
7283
6381
13282
4358
12253
13235
6311
5859
2677
11295
10451
15054
726
12774
5798
4105
2066
6404
5982
1582
13127
10414
3083
11195
10593
4061
10057
12831
11642
9022
6627
4940
9228
13932
10223
2492
9983
2710
11897
8453
14490
6423
8492
11987
12746
8688
12960
5047
10322
15246
8695
4209
10466
7846
6343
5846
1464
12941
8856
10023
599
10250
12859
649
4768
9788
10165
10779
1637
7374
15058
4752
3176
14663
11030
10550
5180
8745
12669
383
4650
12778
1500
7820
9749
13905
9465
11473
2419
14079
6546
1293
3553
8169
14525
11005
3264
12221
12893
4288
9834
5246
2285
2281
271
813
12005
2777
3251
734
5646
3437
13496
13876
9887
8263
12490
8783
12405
14285
13791
3012
1266
11764
10143
5524
14131
1934
4366
2267
5486
11786
9913
12276
12910
10183
4545
6211
4724
1288
15163
8364
11061
1075
742
14368
12041
6727
5270
3577
6683
7002
8380
2424
11434
9961
3244
13484
7702
2387
211
4733
15346
2399
9689
4988
7939
12537
3122
6340
2771
906
9291
10852
12168
13591
12413
13149
646
14064
13925
12904
913
12705
6573
10349
11647
8818
193
792
14160
8854
10807
12445
8251
14012
9174
3915
8294
1744
2205
4595
7952
2532
9551
2363
11146
7917
12600
12532
11745
1552
5333
1505
12057
6968
11175
10659
9767
1998
1584
11543
13424
8675
10523
985
13782
14417
14957
11759
14942
4371
13584
10775
13833
10978
5101
5541
1016
1698
10456
4913
4997
11630
13758
6801
14193
1535
7738
135
3629
5422
4927
8157
10861
5660
13362
108
12284
7810
576
715
9505
11044
15333
14145
1539
10176
10798
11201
166
6283
7943
6394
2125
3675
1061
11986
5744
3298
11250
5412
11047
8853
13747
2819
1673
3549
14369
5460
5323
2767
6486
13344
5346
8173
12793
13499
10120
7849
668
5086
1350
5828
2597
3339
2929
9682
8094
11284
2569
11402
4178
14878
10925
2579
6151
10125
3522
4086
10313
5656
9692
5748
2045
3574
9322
9256
2799
6225
1280
8048
12400
8729
1496
11607
15271
4176
2927
4351
7855
14884
5915
10561
12712
1295
14496
8005
14895
14441
11659
8335
11519
2867
13152
1011
10494
11019
15153
2080
10627
1878
1184
13100
10784
14434
630
6181
14623
11147
14301
13155
1458
10150
15141
10769
12534
9128
6038
14264
8243
9511
11263
11600
3285
1446
10626
5872
13279
13914
13313
12407
8927
4227
3106
13822
1853
5659
7638
3164
12189
5597
5410
5326
12676
14804
14098
10324
13739
9254
10109
12704
9097
3933
15239
1709
14097
8325
6576
2904
10837
9915
1420
10681
58
13946
3703
471
13908
5454
5089
14754
1410
11907
7769
9483
14367
1313
11748
9516
8982
9696
6615
10482
15128
10411
1144
7410
8450
11567
3748
569
10577
5616
4127
12942
9613
1491
12385
4030
6431
13232
13500
5765
12086
566
15347
6376
9042
10945
11095
8912
2304
7074
14083
12853
8788
8611
7521
7879
14039
1046
3543
5832
468
13186
1444
10319
8723
7045
5946
365
14955
3053
3115
13241
13843
6579
2634
5814
12981
9057
441
4474
9486
2241
2008
13263
12237
4714
3696
616
5821
13786
10220
14986
1810
14863
11198
6464
10174
11226
9481
4845
1951
1445
9960
13151
3844
3331
4037
3935
9683
12890
9856
12966
11686
14865
6451
9472
14288
7928
1104
7682
5914
10808
13998
11580
3512
14250
1389
5741
5059
10538
7155
3693
12725
1470
8455
15310
9872
11202
3113
4312
4865
5943
1110
6495
8411
4204
13469
1368
9162
1489
13430
5871
6361
6849
14173
4753
995
13577
8140
6829
8573
2686
10789
9639
7145
5345
13849
6824
2937
408
11191
2415
1803
13635
2841
3093
11023
5898
8971
5005
14187
10690
1561
9734
12235
11437
3911
9562
5199
6949
7757
5583
353
12617
13569
12963
3321
13163
8551
4128
5222
455
11848
708
1497
2730
15080
11378
1405
4898
14046
12133
8073
8130
14963
1058
8142
9400
11556
5443
5845
9934
14069
3600
3159
10763
12304
9713
4255
868
8200
5734
6637
15037
6881
3741
679
11870
12735
5684
6819
3459
5823
1239
13611
15168
1474
3277
7186
4495
4892
4847
4330
7115
2352
13903
638
11798
10177
3750
922
10134
6912
8887
14356
10032
2962
10921
2232
8692
4539
11163
13017
12762
4958
3711
2094
9111
10628
10717
1697
9308
7528
7885
7651
53
9473
6406
5029
2257
5525
10126
13350
14146
7138
8517
8760
7284
7621
354
11774
2221
7215
10292
9312
14171
1898
10290
6964
5307
400
8829
9528
14520
11570
14651
9966
11152
9195
6548
12033
12302
13793
8859
10658
7498
7784
2413
3425
13634
3434
13141
8956
7993
4513
14948
5533
706
2005
1077
12615
12973
6019
11660
11671
15102
9463
2482
15187
10206
11421
11430
3054
2099
9914
2818
5232
15122
2528
3832
7506
14232
15133
4172
7320
9987
7971
2414
1366
4462
3588
11302
12181
4190
248
11733
12542
12653
1780
1335
8919
14932
13458
13347
809
3601
8931
501
5520
6104
14155
6051
13146
2950
1068
5706
10875
1576
15280
3811
7644
9206
3845
8633
7383
5427
3755
1199
4853
9104
2210
10041
10714
4790
13862
15000
7220
1009
1787
1412
10291
7603
7741
11494
4792
1385
7537
12868
4233
9478
5126
1639
7946
11943
12528
13964
3504
5337
6123
13672
3994
2629
4941
6655
1439
6839
11310
10051
8389
2853
12821
5802
14917
11560
1423
14467
13021
3154
2256
14166
5881
12378
2978
3001
12919
1757
13189
4562
358
12287
10279
14598
9136
2988
8870
14579
11523
8134
482
3402
1723
8918
10086
7804
4671
2825
6975
12843
3591
14416
4628
11723
3564
12040
5637
421
5682
2969
6131
8974
753
6998
8879
11472
12115
5745
11222
3924
2887
1404
2905
11769
15194
857
8246
3926
7460
3120
6291
5255
11042
12241
9710
14669
4688
6826
13545
13526
2656
4477
5178
11690
3702
11486
11558
9261
2983
11712
7060
13014
14529
9729
7683
10157
197
6898
14254
672
3498
2580
10511
9437
14772
3238
12245
14273
3188
3901
2851
12598
13456
12348
615
7372
6846
7176
15200
3557
8801
12561
9737
10000
8061
853
4019
478
12929
15143
5385
10199
11390
8825
7930
1324
10801
8822
2803
7230
9112
3414
9086
5546
12835
14450
2328
5151
7980
11944
331
3571
13286
14113
3683
13973
14724
590
1488
8356
8107
5970
1801
11852
3104
13281
6830
5069
4498
516
7049
3042
14491
8105
14673
7527
8098
5278
7924
6639
7992
13784
5762
3380
2755
946
14234
5759
10673
4793
4797
1305
4394
9167
11587
7384
4071
8712
8680
13361
5444
61
8574
3150
323
4937
14981
1907
13604
934
7897
9231
2420
13160
12909
8796
6675
3521
4695
14363
9351
721
5243
12927
15053
1991
13437
7883
8710
15179
15159
8773
5487
14129
8217
8860
2816
13273
12152
14008
10241
19
12075
4301
10489
4238
12066
6858
4426
6273
3730
6416
6755
15261
9846
11827
12637
9458
9904
4334
9263
11070
2375
12125
2069
4684
13101
1860
9471
11017
11654
1190
943
7802
4331
1557
3880
4122
12279
10545
6721
145
11133
9936
12902
4523
8895
5093
1062
9157
8780
6831
6729
6384
2545
86
3615
3061
6135
3484
10694
288
8684
13515
1300
5965
10804
5392
6748
7909
13589
12037
10488
998
8523
6822
4032
6011
9142
9603
5397
8864
9717
14341
6715
11427
838
10950
5611
6412
2546
4970
15114
7450
2915
12990
11256
3010
9320
8512
4378
11829
9304
12394
4163
11796
3570
9911
4214
781
14791
9652
6370
8299
15104
14169
11480
8154
11561
3876
10693
10136
9773
2018
5880
14628
3371
11982
961
8673
3040
14597
7493
7749
11950
8810
9476
15146
15313
4642
4925
2753
13547
8504
6792
6474
15169
8545
13811
12654
8439
389
3530
8643
7477
8211
14105
10367
7560
14952
10364
3091
583
13763
2891
3067
5388
12063
6598
1719
11253
7247
13573
4748
4675
14578
7530
6517
13913
7761
1618
7143
7189
3
15039
2776
5094
8513
10
10269
10964
1426
6287
10259
11566
10680
9295
13714
8539
4655
4578
10101
160
8666
3208
7978
8991
13516
12390
12743
8713
6442
2970
6580
14501
13369
10200
7756
6141
7522
9255
12727
1092
3658
15295
6692
2562
10321
2238
10001
3461
9449
10043
12509
835
9708
14826
11535
12211
11924
4863
6037
8861
13602
6170
12069
4848
8989
251
11467
9969
6543
14117
2457
13644
7892
3117
391
4669
1877
8526
782
1174
4599
2741
10572
10231
2444
11789
3701
12160
9225
1436
177
4155
1612
12210
13981
12270
7730
1980
8606
3826
7157
2697
4659
14595
8233
7573
1214
14540
8062
7512
12971
14509
2956
1222
386
11947
6278
12908
4514
1451
9891
4466
336
5272
9287
14569
11010
6722
11409
11753
13955
2931
14543
13668
12431
9927
5436
12195
3297
14017
13690
1287
1987
9781
4046
8973
5478
9166
3825
71
10645
3958
4386
5439
8376
12323
6262
12972
13428
7830
9549
1895
12416
12079
97
8001
10254
1183
2421
3781
12852
7797
5025
11957
13829
13902
9435
9790
1093
11246
8208
6583
316
9900
8339
1770
10873
9701
3988
9874
299
10392
7945
3237
13899
4721
7985
4982
1059
8059
10260
12261
7844
3550
869
11603
12846
2233
7482
13692
8910
6524
1128
13730
3304
4519
15044
4316
14443
14511
11092
13613
2727
9853
940
6153
11710
7764
2456
13476
9285
6310
9342
8252
6062
15107
14476
4884
2910
14919
7427
9003
8888
14537
11199
8562
2572
12689
936
8558
9161
5840
11917
9666
4810
6708
7793
9222
5186
3144
12059
425
744
686
5068
677
4344
6882
7177
14768
3471
9926
13953
5340
5559
8548
13274
12729
14746
5341
12111
11605
1449
2685
3731
5026
7586
13379
458
13425
6380
5060
924
14689
12176
3399
6493
13667
4679
3183
4824
9402
9281
6460
2123
4405
11860
8253
7445
13368
3852
9760
13233
82
7642
3472
3077
11381
11029
3020
1032
13772
13631
8754
5608
1572
870
3326
14375
6577
330
6458
13909
11978
3098
13204
10652
3820
1713
3196
5033
8338
2614
1137
9755
5206
11087
889
10955
14184
13304
11269
493
7270
11504
4174
7671
10568
5725
4215
12983
3773
9742
8382
981
14631
4931
6559
3727
10709
9461
4236
2010
1795
11352
764
4999
1600
3349
7860
2
8993
674
8770
12206
10005
8249
2812
4343
427
4819
4309
7697
652
15067
670
11328
14809
8901
11363
9230
2183
5362
6581
14956
5245
9585
259
2311
10092
3722
6828
9893
3005
13619
14299
7207
163
14966
11114
5690
264
3938
11575
8592
3782
8438
2340
5239
6329
701
2050
9333
3970
15345
5256
2388
7441
1886
13003
9653
2277
11525
1026
10350
11015
9301
5017
8939
6654
7976
964
13933
8386
12877
2437
5567
4482
6844
105
2476
999
13766
12401
4593
14988
10284
7442
5609
7660
10951
6126
15123
8922
5548
1602
1157
12143
7026
13976
2678
1052
14544
7331
1762
1296
4580
10985
6101
8110
5330
68
12613
2042
2872
6754
10534
1660
12207
11136
1548
6519
6667
7678
12216
3358
9034
9182
3636
11470
76
3854
1560
5719
6266
6111
10106
14995
7613
15258
11210
15330
12604
10155
5360
9935
9307
14615
12876
10264
11620
10118
8222
4723
11041
9517
4802
2117
14353
13816
1908
6251
3337
15176
846
2788
13352
6411
300
12158
7281
10747
2732
7440
902
12171
4979
10845
2303
8704
10317
13346
7535
2408
5358
7246
355
15059
6005
1079
228
6192
860
15254
4649
3511
15230
3677
5153
4340
8016
11914
11407
6105
9554
12885
297
12123
14675
10977
14158
2499
12879
13205
2973
4067
7568
2889
5882
4961
6024
13416
1935
5075
13315
11528
15222
8197
12306
12215
7423
2823
7332
12420
3929
14121
972
6505
12446
419
11445
8618
11673
12064
2260
15023
5014
8998
9524
2502
6594
5800
9854
8109
14906
657
6138
524
2199
13982
5048
4475
5763
3540
11107
5141
1703
4608
4492
10381
7160
2873
1311
7308
696
12874
10856
10353
7345
4199
40
10039
4464
12050
6268
2991
4559
8184
14596
2155
7475
6566
13720
12116
13399
14833
1769
11992
7950
14344
681
5205
4742
2894
6673
702
1825
10812
13727
1397
4757
1289
6320
12288
9317
7133
4103
12464
3143
11811
2484
8736
10416
7206
11160
4159
10904
5493
4091
4518
11493
937
13135
12897
754
13136
11632
12562
5967
711
8852
4186
13693
1945
564
8547
13970
15223
746
7665
4760
15010
15175
9177
7674
6837
12860
10656
9344
14565
4886
8632
13938
6736
12343
4731
1947
7020
1125
1348
12418
11785
8807
1798
3479
12362
5420
14716
10724
9245
4888
1268
4273
11896
1323
4226
8985
7507
4542
8219
10520
931
9971
13559
15189
11088
8461
7004
4281
3538
2566
7608
9817
4623
4063
8288
14560
12032
12144
9012
12732
5985
8348
11717
2919
