2006
2007
2008
1518
1732
1733
926
3820
1538
2503
2504
2301
2302
2303
2304
2305
2502
2501
2500
1534
1535
1536
1537
645
646
647
648
510
306
303
915
916
116
868
3559
658
659
660
661
662
663
664
665
680
681
682
683
684
685
686
687
750
751
752
753
1114
1274
2920
3966
1961
1962
1955
1956
1957
1958
1959
1960
3292
690
2666
2892
2676
2743
2654
3436
1539
3018
2586
550
551
552
553
554
555
556
3797
2740
313
3211
3212
3213
3214
3215
3233
3234
3235
3236
3237
3238
3239
3240
3666
3667
3668
3669
3670
3671
3672
3673
3208
3209
3210
1679
1727
1857
1277
1278
3889
2005
3888
2244
717
3802
3181
3413
330
3419
3952
2134
2455
1977
3036
3164
3811
3264
1692
3722
3790
3725
109
836
3814
1362
1371
1364
3836
249
250
247
248
2882
1832
3895
2635
1127
3150
1682
1830
3861
2507
2898
1818
1819
1823
1792
1634
1635
3322
3323
3324
3325
3326
3327
3328
3329
3330
1627
1628
1629
1630
1631
1632
1633
1824
1697
163
164
165
166
167
168
169
170
171
172
173
174
175
176
177
178
179
180
181
182
183
184
185
186
187
188
189
1927
2412
2254
2965
2677
2683
2140
538
2663
2729
1056
579
580
581
582
583
1193
1194
1195
1196
1197
1198
1718
1719
1720
1721
1722
1723
3848
2636
2637
2638
2640
2193
2643
2645
641
642
643
644
638
639
640
1829
2047
3945
102
901
897
1266
1581
1582
1043
1620
1589
1275
3644
3645
3646
3647
3648
3649
2745
3875
3876
3877
3878
3879
3880
2919
85
1237
1271
1112
1297
134
818
819
820
3037
1470
1895
2065
2066
2067
2068
2069
2070
343
344
345
346
347
348
265
2746
3963
3147
3886
3632
3633
3634
3635
3636
3637
1738
3437
1306
1963
1931
1965
1964
1966
1967
1968
3245
3265
3266
3827
3680
3677
3678
3679
3429
1238
1914
1915
1916
1917
1918
1919
1920
1921
1922
1923
1924
1925
3794
1724
905
1061
123
1062
1248
2263
2130
3709
1519
1108
1272
3089
1690
2352
2353
2354
2355
1973
1974
1975
2357
2358
2359
2361
2362
1353
328
3035
2144
3833
45
1842
1066
1067
1068
1069
1070
1071
1072
1073
1074
1075
1076
1077
1078
1079
1080
1081
1082
1083
1084
1085
1086
1087
1088
3243
99
2219
934
3898
3961
1317
1318
1319
2648
369
367
368
3950
3951
3901
2133
1976
1945
3360
1363
3969
637
1841
657
3839
721
3002
1377
81
796
797
798
799
800
801
429
430
431
432
433
305
1259
1260
493
1444
1445
1446
1447
1448
1449
3059
2282
1524
3140
3141
3723
2983
737
1937
2041
2042
2043
2044
410
2411
2557
3422
388
2907
55
1544
1545
1546
1547
1548
1549
1550
1551
1552
1553
1554
1555
1556
1557
1558
1559
1560
1561
1562
1563
2201
2202
2198
2199
2200
110
763
764
765
766
2554
2963
2964
3356
3357
3358
3525
3526
3527
3528
3529
3530
3531
3532
3533
3534
3275
3535
846
847
848
849
850
851
852
853
854
855
856
3721
353
354
869
870
871
872
873
874
875
876
877
878
879
880
881
882
883
884
885
886
887
888
889
890
891
892
2553
1851
1268
1737
2852
2853
1181
1182
1183
1184
1185
1186
1187
1188
1189
1190
1191
1192
2857
1712
1713
1714
1715
1199
1200
1201
1202
1203
1204
1716
1717
2854
2855
2856
1231
1230
302
304
1595
1284
3299
990
991
992
993
994
995
996
997
998
999
1000
1001
1002
1003
1004
1005
1006
1007
1008
1009
1010
1011
1012
3710
2347
3539
2391
2392
2393
2394
2395
2396
2397
2398
1352
3405
198
2029
2030
3017
98
2337
935
936
1099
1295
1044
1045
1621
1047
1048
1049
1050
1051
3337
3338
3339
1059
1060
1232
3291
1585
3923
3924
3925
3926
3927
3928
3929
3930
2966
3004
3006
278
279
280
281
283
1310
2984
2385
2386
2387
2388
3844
3947
2009
3958
3218
1122
3340
3096
3097
3098
2883
2987
1604
1583
1584
1590
1622
1623
1052
3954
107
3441
3442
2236
1521
2566
525
2356
3544
3545
3546
3547
3225
2360
2916
3505
3086
3182
3023
1414
3832
2822
2017
234
3010
3440
3443
3444
3445
2552
3432
3433
3434
272
3087
1383
2192
2845
3166
3850
2185
2186
1703
1706
2833
2834
2417
2418
202
203
2421
2422
2843
2844
1852
1853
218
219
222
223
2749
2591
1378
264
2644
1894
3149
770
771
772
1283
774
775
776
777
1285
779
1286
1287
1289
1291
1292
785
786
787
1293
1294
2077
2078
2839
2080
1280
2836
2837
2433
1207
1208
1593
1210
1211
956
957
958
1212
960
1213
1214
1215
1217
1221
1222
1223
1476
1477
1602
2770
2771
1614
1616
3290
1619
2494
2495
3304
3305
2574
2497
3315
1600
3317
2575
3319
3321
2172
2173
2174
2175
2430
2431
2577
767
768
1281
332
334
1570
1571
1572
1573
1574
1575
1576
1577
1578
1569
3100
2949
3019
2864
2865
2866
2867
2868
2869
3620
3621
3622
3623
3624
3625
1688
1689
2264
2757
1351
1822
2474
2450
2997
1422
1686
137
138
11
140
12
13
14
15
139
17
18
19
20
21
22
23
24
25
26
808
809
810
811
812
1089
1090
1091
1092
1093
1094
1095
141
1096
613
614
615
616
617
618
619
620
1653
1654
1655
1656
1657
1658
1659
1661
1663
1664
1667
1668
1669
3408
263
2054
1115
3428
3962
115
813
2751
2752
2730
112
519
3891
3451
3452
980
817
158
2025
2024
3222
46
47
48
82
83
84
3957
1605
3834
1817
3397
2129
3708
3230
2759
2678
1736
1825
3015
1821
2828
2956
2459
2460
2461
2462
932
933
2476
2477
2478
2479
2480
2481
3005
3008
3009
2158
2159
2160
2161
208
2162
2014
2015
2016
2018
224
225
226
227
228
229
230
231
232
233
2157
236
237
238
239
240
241
242
243
2163
2426
377
378
380
381
937
1403
1253
3070
3071
467
468
469
470
471
472
2153
2827
2123
2124
2957
1934
199
3835
2968
307
308
310
312
3241
318
2985
1205
1180
289
290
284
285
286
287
288
930
931
2515
2516
1233
1234
981
982
983
1109
773
1598
558
2911
1265
1119
2994
106
6
790
791
792
793
794
795
3694
3543
1046
3804
2383
2057
2058
2059
2060
2061
2062
2063
2055
2056
260
2893
2605
2613
2744
2655
2665
1708
3052
814
1257
484
1256
496
2155
2143
5
3475
3476
3477
3478
3479
3480
3481
3482
3483
3484
449
450
451
452
453
454
448
434
435
436
437
438
439
440
1671
1672
1673
1674
1675
1676
1677
2002
1997
1998
1126
2953
3220
3536
2996
314
394
395
396
397
398
399
400
401
402
403
404
405
406
407
408
2341
2342
2343
2344
2345
1365
1366
1367
1368
1369
745
896
1156
1157
1158
1159
1160
1161
1162
1163
1164
1165
1166
1167
1168
3426
3376
2390
1464
1465
1466
1467
1468
1469
3860
104
2579
2580
3830
2141
2603
2728
2592
1415
2234
2235
2885
2121
2505
2931
2932
2933
2934
2935
2936
2937
2938
2939
2940
2941
2942
2943
2944
2945
2946
2947
2950
2951
1597
903
904
3054
3055
3056
3057
3058
2967
3007
1309
3717
113
382
1262
1264
3139
2548
2549
2550
2551
3377
3374
3968
1741
2217
2218
2220
3246
2131
2132
2876
1691
3881
914
908
910
913
2389
2819
3807
2747
2748
3346
1405
2339
2340
2293
3223
3831
2142
649
650
651
652
3941
3942
3943
1645
1646
1647
1648
1649
1650
1651
1652
3798
509
2995
2571
2572
245
3874
1838
3600
3601
3596
3597
3598
3599
1298
3911
3912
3913
3914
364
365
366
3148
3260
416
3823
953
673
674
675
676
677
678
679
669
670
671
672
2732
56
111
3955
1267
251
252
253
2765
441
442
443
444
445
446
447
3972
3152
3730
1579
2649
2546
2547
2544
2545
2496
1478
3800
2576
2772
2838
3808
3809
3810
2079
2176
2177
959
2432
1303
3343
1276
2156
3221
3226
3228
3229
3424
3425
3224
44
2540
2541
2542
2543
503
668
952
1179
3345
3793
2225
461
462
463
464
465
466
2818
1399
1120
1102
3307
3859
740
741
2309
3712
3706
2952
2585
2999
415
3431
2188
2190
2191
360
2328
2464
3144
351
3187
3188
3189
3190
3191
3192
3948
1701
2698
2930
2611
2330
2694
2695
2696
2697
64
57
58
59
60
61
62
63
3959
1749
3259
2912
2913
2914
2915
3145
3146
2458
379
376
321
322
2187
742
743
2319
1408
1781
3940
315
906
907
821
822
759
760
761
762
823
824
829
830
831
832
3195
3193
3194
3159
3840
3156
3869
2537
97
10
2903
3034
789
3176
2981
2310
2311
3308
2013
950
504
3949
720
534
3960
815
816
2763
3893
356
357
2767
2976
2322
261
1254
2372
2373
2374
2375
3729
2291
3731
2530
2531
2529
1729
940
1731
1828
1458
1459
1460
1461
1462
1463
2209
1995
2221
2222
1999
2000
2001
2223
2003
2004
2224
1980
2313
3184
3542
2451
2452
3162
2333
3693
1586
2707
909
2071
2072
2073
535
536
537
2594
539
2596
2085
2086
2087
2088
2089
33
2090
2091
2092
2093
2094
2095
2096
2097
2098
2099
2100
2101
2607
2104
2105
2106
2107
2612
2614
2615
2616
2617
2618
2619
2620
2116
2117
2118
2623
2624
2625
2626
2627
2628
2629
2631
2632
2651
2652
2653
2656
2657
2658
2659
2660
2661
2662
2664
2667
2668
2669
2670
2671
2672
2674
2675
2680
2681
2682
2684
2685
2686
2687
2688
2689
2762
2699
130
131
2700
2701
2709
2710
2711
2712
2713
2714
2715
2716
2717
2718
2719
2720
2721
152
2722
2727
159
2731
2733
2734
2735
2736
2737
2738
2739
2245
2246
2247
2248
2249
2250
2251
2252
2253
2761
2255
2256
2257
2258
2259
2260
2774
2262
2273
2597
738
2602
2300
2604
2606
2323
2324
2608
2334
2609
2610
2886
2887
2888
2889
833
2890
2891
2621
2622
1373
866
1379
1380
1381
2923
1384
1385
1386
1387
2929
1389
1390
1391
2439
2440
2441
2442
2443
2445
1933
1416
1420
2970
2971
2975
2468
2982
2988
1970
1971
942
2498
962
2506
754
3367
802
803
804
805
806
807
2593
2601
2600
2336
755
756
757
2561
489
487
488
655
1057
1744
155
2320
2768
2630
2560
626
627
628
629
630
631
632
633
634
635
636
1261
1263
3022
1382
2821
3862
7
3080
2203
2204
2082
2083
316
2182
2183
2184
2037
2038
2039
2040
1409
121
282
2766
2992
2448
1421
1684
1685
2977
2472
40
38
39
3309
1606
1288
778
1216
3350
1314
1315
1316
3538
2556
3815
688
1346
1347
1932
1340
1341
1342
1343
1344
1345
1516
3031
2233
3172
2438
3890
1746
1747
1748
3905
2135
2136
3347
1402
160
2894
1425
3038
3039
3040
3041
1300
1302
3020
3021
1735
1529
2011
1612
784
3786
1694
34
35
36
1707
1710
1711
3774
3775
3776
3777
560
561
562
563
564
565
566
567
568
569
570
571
572
573
3783
3784
3785
3276
3787
3788
3778
3779
3780
3781
3782
125
392
2122
3409
3411
3414
3415
3416
3417
1856
3396
3398
3399
1370
3401
3402
3403
3274
2909
1506
3028
1517
2370
1505
1247
1124
3294
4
142
269
270
2368
951
2119
3105
3106
3107
3108
3109
3110
3111
3112
3113
3114
3115
3116
3117
3118
3119
3120
3121
3122
3123
3124
3125
3126
3127
3128
3129
3130
3131
3132
3133
3134
3135
3136
1442
1443
1439
1440
1441
3922
1029
1030
1031
1224
1226
1227
2811
1588
2812
2813
3295
1725
1726
3296
3297
3298
3371
1564
1565
1566
1567
1568
746
1396
2908
3083
1509
1510
1511
2878
2879
1495
1496
1497
2848
2849
2880
3884
3081
2181
3849
1105
744
2948
1452
1453
1454
1455
1456
1457
545
546
547
548
549
2517
2518
2519
2526
2527
2528
1106
1107
1035
1036
2379
1609
521
2378
3946
3219
3816
938
1826
1827
3449
157
1388
3380
3381
3382
3383
3384
3385
977
3386
3387
3388
3389
978
3390
3391
3392
3393
837
838
839
840
841
842
843
844
845
966
967
968
969
970
971
972
973
974
975
976
857
858
859
860
861
862
863
864
865
3455
3456
3457
3458
3459
3460
3461
3462
3463
3464
482
3197
654
2706
108
2103
666
153
667
161
691
692
2758
1750
1751
1752
1753
1754
1755
1756
1757
1758
1759
1760
1761
1762
1763
1764
1765
1766
1767
739
1768
1769
1770
1771
1772
1773
1774
748
1785
1786
758
1787
1788
1790
1789
1791
2307
2308
1793
1794
1795
1796
1799
1800
1801
1802
1797
1804
1805
1806
1807
1808
1809
1810
1811
1812
1813
1814
1815
1816
2329
1798
834
2899
2900
2901
352
2922
867
2924
2925
2926
1393
2444
2973
2974
2471
2989
963
3277
3837
2463
266
2194
2846
3828
1947
41
1040
262
2377
355
3829
2376
2961
2962
331
336
337
338
340
342
317
2120
2326
3257
3258
3261
3232
3267
3268
1928
1929
2673
2331
2723
2724
2725
2726
520
3084
3248
1512
3029
2227
2228
3517
2881
3885
52
53
54
2558
2197
2910
2595
1897
1898
1899
1900
1901
1902
1417
1418
1419
1903
1904
1906
1907
1909
1910
1847
1848
1849
1850
1611
783
3825
1236
3394
3372
3373
3407
1404
584
585
586
587
588
589
590
1683
2858
2859
2860
2861
2862
2863
3518
3519
3520
3521
3522
3523
3591
3592
3593
3594
3595
1502
1503
1504
3572
3573
3574
3575
3576
3577
3590
3202
3203
3204
3205
3206
3207
2035
2036
2031
2032
1831
1304
3939
3936
3937
3938
3085
324
3250
8
1515
3030
2231
2232
2884
3171
2466
3887
3560
3561
3562
3563
3564
3565
3312
3053
511
2363
2364
2365
2366
194
195
196
197
2145
2146
2147
2148
2149
2150
2151
2152
3453
3454
2823
2824
2825
2826
122
2829
2830
2831
2832
2841
2842
1702
1704
1705
3077
3078
200
201
1354
1355
204
205
1356
1357
1358
1359
1360
1361
214
215
216
217
220
221
2413
2414
2415
2416
2419
2164
2165
2166
2167
2420
2423
2424
3062
3063
3066
3067
3076
2179
2180
3079
3404
414
387
2708
2760
1993
1154
1155
2410
3406
1064
2338
2756
3370
2755
1206
1625
2754
89
1696
2565
2568
3271
1730
3806
3143
3216
3217
1270
1111
1296
2102
1603
1638
1639
3902
3714
3715
2582
939
1058
1332
1333
1334
1335
1336
1337
1338
1339
2321
144
2587
533
2467
2084
1837
480
2573
1032
1033
2835
1037
2075
2492
1592
955
1599
1601
1475
2769
1613
1615
1618
2169
2170
2428
3180
2960
103
2590
3303
1624
2261
2010
1926
929
1991
1992
319
2409
3686
3687
2407
2408
1305
1169
1170
1171
1172
1173
1174
1175
1176
1177
1178
917
918
3953
409
1839
2108
2109
2110
2111
825
826
827
828
93
3724
3263
3255
86
1104
3838
1235
1103
3817
3310
373
374
375
3142
333
335
9
2325
1969
3254
3651
3524
3652
3653
3655
3656
3654
3657
3658
3659
3660
3661
3662
3663
3664
3033
207
88
3691
3175
3692
3186
3711
1250
1249
531
473
474
475
476
477
478
479
1930
1241
1242
1243
1244
1245
1246
1426
1427
1428
1429
1430
1431
3870
3871
2210
2211
2212
2213
2214
3251
3252
3253
3650
2237
2238
2239
2240
3026
3027
3032
3168
3169
3170
3173
3174
1523
2520
2521
2522
2523
2524
2525
2241
3199
2567
1228
1229
1225
1013
1014
1015
1016
1017
1018
1019
1020
1021
1022
1023
1024
1025
2012
3048
524
3965
96
94
95
37
898
386
3903
291
292
294
295
984
985
987
988
2990
2991
2447
1116
1117
1118
1376
3847
2955
2469
2470
2499
2895
2896
327
2295
2296
2297
2298
2299
1525
1526
1527
1528
1530
1531
1532
1533
1282
3796
3293
1587
1209
769
3970
1514
1513
3400
3944
191
3289
3732
3733
3734
3735
3737
3738
3739
3740
3741
3742
3743
3744
3745
3746
3747
3748
3749
3751
3752
3753
3754
3755
3756
3757
3758
3759
3760
3761
3762
3763
3765
3766
3767
3768
3769
3770
3771
3772
3773
3278
3279
3280
3281
3282
3283
3284
3285
3286
3287
3288
2775
2776
2777
2778
2779
2780
2781
2782
2783
2784
2785
2786
2787
2788
2789
2790
2791
2792
2793
2794
2795
2796
2797
2798
2799
2800
2801
2802
2803
2804
2805
2806
2807
2808
2809
3864
1307
1308
1480
1481
1482
1483
1484
1485
1486
3504
3495
3496
3497
3498
3499
3500
3501
3502
3503
258
544
483
495
899
943
517
2294
3695
300
3801
254
3821
1844
1845
2
3841
557
3
3873
1397
2570
2539
133
31
3448
193
2327
3897
491
1395
105
2959
3185
2312
3813
3155
979
2315
2921
3812
1698
1699
3446
0
2283
2284
2285
2286
2287
2288
2289
2290
2742
3351
1843
1500
389
3964
359
3163
3165
3262
2335
120
2980
3690
3178
2954
1499
494
499
411
412
413
3179
2958
101
3088
2904
788
350
3177
1398
3508
3509
1320
1321
1322
1323
1324
1325
1326
1327
1328
1329
1330
1331
65
66
67
68
69
70
71
72
2634
3799
1255
3728
2510
3395
693
694
695
696
697
698
699
700
701
702
703
704
705
706
707
708
709
710
711
712
713
714
715
716
621
622
623
624
625
2702
391
1100
513
516
526
528
530
2171
2076
501
2429
2493
507
2226
3822
3439
2562
2563
2564
1520
1392
2750
3904
325
326
3068
3069
2437
2196
2927
2928
2647
3602
3603
3604
3605
3606
3607
2314
3183
2446
3161
2332
1123
3341
1640
1641
1642
1643
1644
719
329
900
3091
3092
3198
3090
3227
3348
162
1522
16
3099
3101
3102
3104
2022
2023
385
1745
2905
2584
1279
3368
3369
3378
3365
2559
965
3718
3719
2049
2050
2051
2052
2026
1540
1541
1542
1543
2027
2033
2034
2045
2046
1374
1375
2692
1594
1251
1252
1835
1836
2533
2532
27
28
455
456
457
458
459
460
2598
2599
1473
3093
3094
3095
3201
2243
299
3931
1846
1273
1110
1113
393
390
2650
114
3665
2646
3231
417
418
419
420
421
422
423
2053
1591
1153
3060
3061
3072
3073
518
3843
3160
3540
3075
3064
3065
3074
3578
3579
3580
3581
3582
3583
