2536
1210
7782
9493
4901
10200
9289
11525
8170
8021
7171
8278
5804
9438
2337
9566
8408
2715
1825
10768
8629
6298
4110
4923
11081
4771
6669
5199
11206
538
4089
11102
10648
5825
3098
2422
5908
2692
4170
5046
8698
2982
11298
10126
10129
6649
5597
5100
8854
3698
11400
6559
12080
3160
5620
3035
5118
12190
2392
7653
12215
5547
3834
3424
6897
1683
10881
6618
1483
3995
357
4192
3909
8776
4353
2517
2231
3785
11270
7894
10543
2543
5767
2154
9210
7413
3045
1743
6011
379
10829
2252
7065
10872
4303
450
3975
5281
3288
4024
3573
4026
1358
2009
2495
10389
8481
5580
9414
2227
3118
473
10574
3006
3671
5582
6561
12084
3658
11205
2856
9968
9088
8390
5202
10141
12113
2629
5682
9381
11604
7932
247
6560
1941
3455
218
3353
6872
7690
4333
11260
9613
11094
3279
2527
3238
3941
11042
10356
11586
11100
6914
9747
7501
2325
7975
1739
10336
6790
8764
200
10351
11802
2540
5147
11797
4630
1621
3994
5814
613
7757
9659
2929
2388
5961
2559
4532
3800
10600
4982
9037
5235
3717
8468
102
5065
4281
4489
533
4411
8849
5853
3501
11203
747
11348
10528
3422
3222
2250
6791
304
4459
2316
2290
6630
6724
3082
4688
135
9814
9220
4245
2389
3777
360
9790
9716
3065
2688
7824
8926
4663
5967
7116
4073
1208
7592
11236
2184
10790
12231
1981
11901
1153
10960
10341
10548
1217
9583
6037
927
2012
11660
396
3059
149
8388
2119
7417
293
10718
8214
3649
11044
311
971
4122
8850
4919
10373
4238
8094
5616
7387
4127
2142
7558
10560
2201
7438
10272
5985
4030
11961
6857
5605
6753
8686
4104
70
2820
4003
10592
11264
8651
3728
1643
10163
4746
8020
3973
5099
2453
2417
7204
6146
7787
7914
8359
8735
11305
1923
5082
47
1965
10297
385
5391
221
8139
8341
11323
624
8251
4336
7033
6073
1197
967
10588
10057
7897
4810
429
2935
8489
6333
5996
11701
2239
2232
9368
11463
6500
11012
6427
6237
4880
10010
1323
19
4438
9119
3043
9591
4985
3819
2664
828
4918
673
7247
3615
11783
4404
937
5384
8039
6074
2288
11028
3495
7498
10132
3325
8630
5430
4201
8146
11248
9489
8045
10290
7985
11504
9647
7976
10064
7974
6839
4099
2732
5129
5404
12051
10124
11124
749
6529
518
10947
9456
7443
5848
11232
3620
3614
4147
9525
4337
10069
4448
3532
9173
11934
7249
6134
2980
6794
9601
10324
12261
1602
5288
5211
290
6825
4783
1213
2218
5812
8328
6196
8346
3855
7665
4475
5938
1964
95
33
5095
2586
9712
9380
3651
6307
8626
59
10260
1139
5762
2039
3037
3400
7883
7144
6057
7854
2236
3187
1950
5761
1068
9572
7766
7601
2340
10109
4826
7850
6096
1793
6739
2102
11580
3154
7746
3846
5654
6045
8509
5038
9134
5284
1006
3706
373
1002
10302
3328
1722
7477
7563
8868
3838
10075
7566
4237
1413
101
3013
7134
3528
10609
10665
10776
2973
5130
10745
11765
11691
11788
12248
12096
7836
6487
11082
99
10749
11801
2596
3772
5025
9690
2318
2576
9083
11234
8900
11089
2420
5111
10110
7520
119
4767
5627
3194
4347
1188
3143
6572
1175
10280
6449
1053
6044
6654
7799
12205
11022
2034
1498
744
2609
5666
3139
5218
12070
11742
2301
9889
1720
10709
5494
7756
4983
2168
10447
8265
424
554
5781
487
7889
8637
7717
5389
10823
3233
8217
2167
468
4860
5282
7954
7620
741
9992
1740
3372
839
2582
3547
11559
3693
2709
9189
9008
1984
3487
7540
12210
5538
7583
5963
5337
6088
245
3393
10990
9537
10128
3794
1864
4584
7893
6975
724
11866
5707
1368
9632
9334
4012
5502
12222
6759
461
6830
1010
2333
932
1121
1701
14
9156
10335
7080
3685
2873
3914
11777
5778
5306
5265
4877
6255
8818
3299
6030
1634
8788
8589
6670
7388
3647
8952
2963
7234
1282
4216
7495
214
5438
9990
5239
3853
3524
4914
7493
7113
2020
11458
3912
9529
772
3433
11427
5058
6125
3297
6373
3519
7377
647
5711
10145
8811
9341
2616
736
8206
2372
7463
7254
1178
10650
7272
31
9416
7229
7603
1586
6870
2380
9683
6023
2174
50
9956
483
11416
11114
3742
5279
8606
7039
8653
8617
10747
6497
8419
9668
11811
10686
1047
299
8300
2366
11077
5504
856
3105
5385
5700
7760
11268
6431
668
2608
3464
6292
10054
3116
8158
8281
2109
11308
9494
10398
3418
8291
4833
6632
1320
1236
9928
970
9534
12117
2554
8097
5945
9419
5687
8064
1373
5817
1250
8825
6105
8802
3827
1402
7764
10184
6071
895
10992
7061
11201
9488
12145
10741
1408
7682
11389
1261
1039
8947
10987
6321
9820
434
7017
3272
8188
2407
5481
5303
3710
8583
11838
12039
1732
1457
12220
9036
4301
5053
8075
5766
8042
5733
6072
10391
5561
4600
2270
6848
2342
10410
3522
5611
850
9535
9783
11392
9858
107
9682
8747
5317
6407
2054
5768
11009
4653
1078
3944
3070
993
3274
217
5349
9500
8151
4655
3550
1595
510
700
5024
9230
1399
7981
9479
4483
573
8693
39
4948
4393
11796
7092
2760
3668
10165
6482
2614
11200
6695
12219
8330
4843
1662
346
6878
11884
11883
3434
2150
6786
10803
251
2754
3429
1512
11473
12038
6137
10955
11026
10815
8729
6661
11680
8069
6245
7013
7886
5914
5503
811
9115
11809
7964
1142
9677
10602
4381
7637
8457
812
8870
177
10330
5272
4707
10780
1570
8478
6779
8749
11282
10771
1427
8413
1369
4040
8180
457
10711
1434
11351
8934
9811
12060
4043
11171
1971
1421
11847
1022
4828
5910
9332
2798
10170
3776
4993
2088
9225
7416
7505
5629
2238
1470
9573
5152
11947
6390
2611
10088
1275
6604
2791
333
5044
3523
7720
8057
1516
303
11919
4291
9377
10655
5499
10999
210
8708
4436
9546
651
11226
8121
10364
8301
2348
2589
3265
9267
7844
9842
11560
9585
7765
5465
1791
10487
4541
10481
8229
2267
3844
6605
6518
10021
6750
1432
8138
8302
2534
1786
1844
8242
11587
9245
10920
398
10236
5210
908
321
9993
10902
2714
2522
592
9102
2144
12188
12140
9403
12109
7831
9468
11668
764
4295
11970
2464
2216
10911
8504
1839
4614
4129
11843
10125
12201
7318
8891
1157
10197
4845
9326
6232
11524
3254
10296
8337
2519
7320
6101
1414
8396
9975
8506
5508
9604
6494
7448
9877
12032
9870
1713
8293
11297
3508
2145
2442
1383
8486
4338
7174
7729
4053
11546
8297
5312
9313
7962
248
4162
8117
11677
562
1954
8806
4365
2638
10936
914
7244
10880
5026
3958
7142
7908
862
3616
8379
7228
10679
1166
180
1562
8923
5720
2998
10288
6849
9024
9770
7127
5236
11360
8218
6685
3650
10536
7379
10027
900
12167
1496
12101
8864
10131
7444
92
5758
10878
9947
7573
2943
4847
5339
1766
11484
9241
2471
1084
9863
8881
8177
4075
3210
2585
10879
6658
9675
3721
2254
408
3559
7971
11973
7930
9767
3851
3470
6906
7960
8176
6862
6508
10318
8748
10839
11766
4782
5522
8403
3038
8542
1351
3132
10094
5289
11977
1669
11869
8290
9191
4313
11503
330
1346
1650
9517
4770
1091
73
7590
7317
5751
7591
9418
5003
41
9370
11225
5544
12182
318
8243
2087
3599
9797
8821
9730
2685
1614
7556
2046
1277
2751
8534
8677
5566
85
1350
6177
1934
2766
1035
9641
6556
3378
2960
6330
9228
1692
11144
4984
9308
8758
2310
1355
6083
9714
10388
4807
1453
9244
12171
898
8876
5829
958
4533
8672
2633
465
3817
3011
5613
6952
4467
868
7946
3088
10759
3773
10437
5909
7467
8326
1688
11930
6119
7706
4335
2002
11256
3461
4279
7510
5271
9542
12174
8309
9936
10553
5331
9857
1111
11874
7524
7702
5873
11024
9839
2021
12194
5362
1347
8541
4189
6211
1665
12040
1219
9012
5852
10575
2984
6249
4091
11541
7202
8421
3130
2701
4447
7169
1530
3931
543
9486
9635
3425
3669
5128
10593
3025
7529
2588
9246
11371
11373
7518
11153
8485
733
4890
3488
5820
7748
6876
2498
1433
2678
11027
5277
3016
12226
1623
9980
6769
10694
10887
12155
1953
8371
5466
3860
11645
3290
902
11902
5598
12127
8536
493
4417
6631
1617
2036
2127
5763
3473
2357
150
8406
4403
11728
2968
11739
8696
1430
7372
4710
11907
1935
4829
708
4253
10710
2483
6552
2531
1491
7369
1090
35
11347
3578
4096
9995
2564
5893
4706
4387
428
11849
10556
3349
6671
3002
5358
5843
11790
5354
11079
9222
2128
9314
8005
2848
10448
704
6143
6532
7711
9171
9603
5664
608
2157
4879
2210
11422
3034
2879
5888
5066
1593
8424
9069
758
6051
3592
5333
7051
12165
6329
6921
7631
399
930
9272
542
10084
8271
3540
11530
1418
4345
1989
5937
5090
4885
2055
11616
367
1393
9815
4702
4442
4194
4429
10507
11771
7441
63
4374
3312
134
5412
11317
10976
10042
2344
3526
5353
4084
5942
10310
696
427
7663
1579
6742
7719
3447
8102
8985
2351
10056
4816
3126
676
4498
10944
8513
7163
8031
5153
6743
6453
6440
6436
8452
9673
9775
9157
12204
6746
7919
2487
10983
11289
2452
740
0
5743
8978
4786
9343
10219
9782
3679
8422
8919
6714
5270
10517
8136
11896
5363
7063
7740
5228
6755
4549
7278
7371
9864
12053
9731
4028
5015
7708
7625
11619
216
6286
3033
9261
7087
921
866
6934
8614
17
8375
7346
4502
10586
6740
7586
3601
10707
3295
10008
3448
1783
5822
6479
4401
5323
795
3204
11398
4398
6568
9969
5262
11936
6885
6176
532
2470
5196
1697
4064
8374
11601
11241
7290
10545
683
4874
2802
2444
577
11385
5528
9231
8294
3344
11015
7732
5027
761
8008
5609
796
7131
6577
6075
4639
6854
10376
10226
3898
2874
5916
8200
12256
10420
2057
5795
5426
8961
7028
3755
455
6700
11867
6312
5224
10950
1041
7747
4889
6338
173
6647
169
7286
9051
9124
10346
11600
7797
1272
10103
960
5608
4738
3208
2771
883
5728
6323
9448
799
5640
1655
1730
3133
2991
9979
6234
9447
2910
7768
3852
7664
9239
9311
7660
4819
7482
3387
1160
1479
10101
11072
8455
5230
9717
2769
720
586
6950
9885
7301
3680
4672
11825
7297
7838
5261
7771
1147
10394
11438
2069
4755
10490
8565
12031
4682
4731
5473
3544
1747
11950
8772
2807
11890
1501
10401
10994
8132
2390
2684
11912
103
10275
10876
1626
2473
484
6504
9599
9099
11245
11821
2183
9084
3643
9575
4115
6393
5378
291
12158
6814
2447
12037
9620
9065
4046
1472
3576
4705
11048
1795
5674
8492
6377
2864
6666
1255
3570
4730
2019
8159
578
10137
1511
5748
6973
6965
2459
9833
9734
4074
11518
5786
2993
10374
3520
9027
9004
621
6935
9481
9841
10072
11768
8183
3485
2221
265
833
10903
6478
2677
1285
1608
4375
7181
68
7499
6613
4184
10607
6578
6978
9186
11822
11092
1396
259
2189
3910
11906
7422
1671
10414
6131
6383
756
1201
11687
9482
6903
10667
2215
4400
4149
1744
10731
5688
9549
7614
4724
694
4382
10413
1807
9722
3107
3115
3858
6673
2948
8443
3780
4081
6084
6086
3884
8351
9624
9116
5792
6896
4250
5377
7809
8546
10772
9176
11819
3441
5924
11957
1463
10182
1237
5461
4722
10846
9329
5156
6834
10671
8992
8391
11647
7800
8709
7363
6592
8627
8207
2124
7403
819
11514
4105
10930
10489
2928
6681
8933
6348
9295
1670
7872
1061
6179
4190
3060
1254
952
4867
9646
7801
9967
1118
7772
6594
9128
8327
1718
3955
8473
11468
2455
9034
4419
8833
10794
2859
2788
6908
11239
1978
2620
8603
2319
4031
9625
10734
1056
1146
7649
1937
4643
8663
8484
7105
6462
8657
8480
8
7464
3746
9148
11379
7696
96
1459
1082
6025
426
10740
1883
8740
6690
2627
4450
8713
4513
6435
10532
5321
11743
979
11851
1042
2085
10874
3021
9202
1592
8336
2619
3375
2631
2742
3048
9587
5050
3469
582
11894
5403
5651
10980
11511
12081
2992
3
4779
410
10210
11578
9628
4168
2884
9507
263
1983
7338
439
8482
8778
5683
8263
11753
1107
2913
7923
3883
88
3231
11099
4617
7502
9402
1768
3881
1043
8001
274
1281
7103
2391
3386
4602
9303
9053
4329
8550
10068
3413
10475
415
6326
7865
8414
710
4308
3707
407
8886
10082
3315
7107
12058
4191
10898
6691
4772
4676
6757
1523
3314
1110
10059
1406
6679
2932
7135
6925
8560
11343
11290
633
8383
10566
6372
6425
131
5297
4004
9643
774
9744
3857
469
8784
11184
10183
10687
12166
5553
12254
563
1905
7300
6851
7553
1576
5361
3128
7676
11140
79
6703
2474
4449
3355
4884
10962
4622
5545
2954
8471
12015
1904
9822
1851
4328
2901
3492
10119
1145
4111
6386
11084
8493
852
1494
7635
3101
4217
1805
4060
5008
4900
188
1123
10285
2271
5747
1594
10416
500
8715
2412
11292
3859
590
5684
4029
7132
4519
2075
5431
3017
9920
777
5157
7303
1194
10074
11366
8931
9307
3131
7334
1113
8256
6946
5062
10133
6108
3437
9801
5665
565
8446
1803
8362
6997
1642
5894
4077
10632
8797
6554
46
1149
4822
8059
765
3942
3886
1566
10154
6159
5259
10085
5171
11020
11940
2655
1011
3026
9589
3602
6224
4714
11037
6651
7381
2439
10403
11873
10509
11449
10192
1345
1444
10891
4960
9830
80
10521
2615
335
10938
6422
6444
1572
8883
10619
879
8539
10469
1509
1896
4785
6909
7966
10076
1845
111
472
9750
8893
7067
5138
8450
10196
1183
9626
3247
6300
2507
2108
3405
11643
6557
4317
3617
2927
8995
3702
3463
11577
5322
11330
11164
10505
4949
5076
11576
4609
2882
1193
45
10033
9939
11161
1578
2303
5022
3509
1584
4128
11287
10460
9039
7053
5799
7187
315
10514
9807
10020
9568
2328
1624
5601
10697
5421
7120
6223
4083
1071
10060
6149
5844
10178
8674
409
9296
6085
2818
576
10942
9871
7503
713
4209
5511
1087
9471
2335
4176
7076
2405
1454
11035
2876
4100
881
1710
3219
7484
11177
4913
2777
2245
2613
10664
8975
3323
6912
6955
6203
7433
1597
6939
7191
6455
8844
3724
2628
11055
1180
6005
1911
2955
7840
2214
7283
7284
7453
6178
5009
9985
4553
6625
3264
10820
6206
12029
1691
5120
123
10338
1952
10501
10144
3282
7680
3305
10900
3468
6277
10929
10855
11368
10241
9096
11980
5234
6389
2680
1891
11090
7046
295
8119
4695
11761
6428
1785
9415
286
5470
8316
1758
6463
1284
4924
5219
10354
4219
6253
9950
6192
4058
9006
549
9630
2673
4418
9558
11156
6650
5070
4580
3790
11699
12162
4515
4299
5931
2377
9388
4048
3334
7030
5903
5501
5865
10826
8722
4972
3146
10559
1303
8157
5858
3465
5517
4868
8240
9819
6698
11321
7704
8377
10255
10349
5221
9720
6684
5735
3169
2813
2861
7868
467
11749
7677
6958
9293
106
7879
10828
4202
6847
411
7816
6994
10884
2512
5902
6535
2981
9021
6280
11613
4708
11065
4679
11271
4838
1862
3585
9248
5035
2360
7781
4093
4721
2406
29
9121
4474
3316
6624
568
12213
5860
1245
5632
5773
1458
9050
1835
316
108
7070
6987
6672
10816
4351
10024
4844
3997
11994
10549
6341
11579
10234
10386
4023
12003
8313
4872
4414
4641
6306
3635
973
8796
9818
7168
7359
6620
10190
6167
1374
11718
8655
7308
4862
9962
10
10149
11905
1426
9902
8368
9779
718
8193
3445
5933
11339
735
4950
11836
9253
3562
2140
4606
7251
909
8270
496
9350
10299
5533
8420
7173
1206
9876
6008
5857
1195
8451
5652
6662
9478
6378
2995
8149
288
8129
5614
8268
4671
8255
6208
388
836
9020
9271
280
5419
4649
3412
6113
1112
7149
10550
10258
10066
3689
5617
4257
267
10264
1598
3954
8167
11656
7189
7242
7752
5145
5028
10657
1379
9691
9656
416
5875
4412
1962
620
1703
6562
5862
3752
3000
11556
8394
6258
2516
9410
1190
9327
6271
12179
3467
5641
4246
8918
1506
3887
10620
5298
4464
12022
9342
11956
794
730
7450
12138
5173
3404
10104
2626
4102
7153
1745
3708
8464
9255
11962
3307
2675
1199
9883
5998
4119
5636
2952
1889
7420
6260
11875
32
8282
7411
6861
12153
10496
6347
8773
8892
9544
5294
7814
5441
9649
11736
3928
10941
1486
605
3821
11413
1533
2651
7376
2894
9619
8211
5702
1330
11535
957
4635
10733
6940
4148
12052
1660
1026
6032
3207
1247
9197
655
623
7749
11808
3688
2199
7884
12065
12094
10654
9362
10859
2919
8126
2625
9103
3027
2996
1746
5250
10970
3094
2457
6104
10672
76
12059
4685
8235
2698
4097
10736
5245
2260
1775
10904
93
2858
8348
8852
12149
7887
714
1076
11982
3705
10680
2015
1885
9120
9144
5712
6061
3946
1488
5304
3784
11301
3621
9238
2759
9669
3206
1437
1233
185
7476
2465
7762
5537
8095
1297
3111
6180
4560
449
4256
4092
7733
3660
7268
381
4215
1155
5584
5328
5367
1728
3014
8618
2425
2727
1253
4536
3458
2503
5149
5723
7018
8296
5216
5900
5180
1612
5357
2191
4049
11654
11454
9974
7965
9033
7991
9821
530
7238
5113
10189
11995
3369
6706
8249
8544
6181
5610
3991
11128
4962
12160
144
3366
4902
8675
7628
2755
2492
5049
7188
4618
8741
10436
5477
9855
2889
6158
4341
788
9420
3068
2676
6533
4754
2030
5006
9309
5896
3684
10833
431
7735
1780
8909
2974
5740
349
9736
2909
9899
42
10977
981
2312
3842
7118
5635
3079
5826
4871
9040
5183
6880
10102
7709
916
5318
6717
7223
11424
1616
2846
6266
11409
6964
11951
1833
10631
4608
8858
3379
8385
8834
782
591
1156
1536
6883
7741
10608
7688
6648
3090
2401
9999
5489
11868
5032
2152
8511
4394
5990
9606
8997
2816
4764
9666
8904
4907
6189
4509
11382
4123
3100
8950
9593
8986
8469
9073
1731
7402
11669
11214
11795
1870
2804
12218
2211
10328
11590
168
11762
11711
10157
10113
9224
5360
2107
5371
9282
3753
3529
7047
567
6888
11812
2367
6865
10570
11846
6608
440
2018
10329
10070
8233
6414
11319
4540
12049
7905
1224
5928
2592
2753
6210
4894
4601
2691
36
4525
9487
7348
2249
7060
3938
10474
3181
6931
9867
9926
8147
7977
5011
3984
12216
9957
1360
11209
8710
486
4526
5639
3421
6818
5453
3703
637
4832
9429
3613
8062
3646
9320
9104
7012
12230
11909
10625
5493
167
1915
9611
7019
8936
7675
11495
6576
11924
801
2138
7391
3351
742
6510
7210
6822
11019
10130
3678
11460
4367
3963
9321
2847
9608
2478
715
2957
6433
5556
10003
7481
3244
10484
12184
2089
9378
10371
4963
4265
1834
7332
6452
9693
8935
11470
6443
3833
7452
2485
5079
10937
12111
3399
1886
3003
23
4634
9118
1309
6029
789
3411
5030
9755
4850
2514
8018
4035
8615
9954
4743
3574
6194
1957
9485
11710
10427
10411
10863
7066
6496
1395
9209
7535
5706
6886
12192
12198
8084
7354
11036
7306
5872
1226
5467
3286
12016
9973
4395
6705
8598
9826
10515
1310
4718
3798
4934
9383
9301
4007
10065
1822
8813
1315
11163
11569
11528
2315
2826
10366
6826
2595
9753
1339
4410
738
965
252
4989
8736
2098
5479
6109
10661
872
4610
10224
8897
12191
11545
10552
3781
6066
8067
6080
9729
6162
10781
5117
5746
10585
9832
10244
5697
7203
11570
3921
8803
12025
447
9798
56
3449
2855
4165
2986
476
5871
6913
5523
8607
7100
7307
8079
6117
750
10751
8444
4981
376
2458
10660
7769
7775
9233
8649
3837
8055
12247
3352
5444
5411
9527
2400
8009
7412
11345
6902
5386
11684
8025
9584
5912
5459
4640
3989
227
6817
2317
3482
11329
5464
2648
1508
11331
11441
1684
499
7034
1699
1877
11333
513
10479
5399
8683
2704
820
6200
9364
7538
4619
8431
8109
474
5950
10984
3919
11380
6270
2916
3608
8628
480
8769
10836
5562
2577
11091
5701
4768
10801
8739
7068
6076
7924
7794
1349
7699
5478
10714
10425
2922
8828
7222
1606
5225
3031
2762
6752
11531
3148
9384
1659
7219
10079
1446
4139
1020
705
8401
1866
10580
3889
9060
2122
2574
10628
1921
2956
7110
6824
6379
7899
1419
8499
9595
5257
2025
594
1558
8178
9045
9360
10476
4691
7928
3694
2058
7847
11052
4605
6058
11755
7050
7197
12185
3894
9427
10239
8496
535
9644
292
2836
6702
9462
2870
7811
5340
8459
8639
4792
3692
5405
1318
7920
7852
10905
10692
9229
12115
12168
4999
6735
5676
11172
2546
2228
8885
6201
8077
4975
3284
7077
9097
11365
356
12177
9149
12044
11038
10461
837
12091
266
7599
2006
7401
4132
10485
2362
5380
5181
10083
8959
7277
2899
1890
11703
157
5703
127
5595
7874
1441
5667
6947
7588
2748
4959
11723
9792
11054
3061
9763
6291
10875
10261
1057
1963
3125
3822
7325
1127
6853
6067
9661
6123
4288
9761
8288
7808
11446
8579
1543
3263
11471
4696
7798
2268
4720
11876
5268
132
6758
4863
10359
603
5174
11266
11845
393
11208
5400
4015
5155
6375
9598
9965
5460
7078
5514
4604
181
2277
8596
3234
8719
7589
6775
4112
8440
9279
3948
401
3902
3595
1631
3652
7807
3891
7248
9043
11594
12121
3403
4794
6621
10404
7383
4220
8612
11648
7182
12056
6243
6325
6398
2067
4667
5643
5492
5169
1599
5019
10928
1385
12009
7434
9315
9052
1405
4991
3275
809
9016
2029
6153
2650
4439
3024
12144
8254
9541
5045
7399
1702
4504
61
3971
5140
4773
2094
5151
10347
1880
3370
8694
10270
4269
10604
8641
2287
7037
9129
7515
4665
8347
6489
664
2906
7969
1046
10821
2404
5425
8093
9180
1568
462
743
222
12110
8690
8030
625
3656
6805
2188
2177
9317
3499
9812
6022
8983
8949
438
4520
5623
353
11688
456
9835
9616
239
8165
7298
230
9565
10127
8231
4407
6550
4793
1018
7271
8721
8331
1760
5725
8622
10765
10400
1103
11108
11908
8153
4415
4226
3251
8530
5526
3063
4929
4344
11243
2947
11230
11316
7205
3431
11759
4742
10675
11101
4789
9868
10308
10032
1034
2264
11406
8222
4205
6209
906
10670
8761
368
10565
3593
1415
7310
2286
8602
11702
12154
8671
5437
114
5800
3873
2900
1721
8726
4562
3184
4342
1824
3080
10313
3023
4740
9862
1901
3232
2320
1918
5418
5821
1569
5960
347
1242
420
11567
9258
37
9854
9972
6515
8830
10689
1031
4339
10525
4320
7292
9825
10172
6639
763
4974
10897
10171
8692
10843
2484
6107
1222
10730
8387
2134
2423
4098
12105
6929
10799
5680
10456
11359
10497
4521
1575
509
10203
6458
9182
2304
4638
4010
748
4193
11785
1259
3077
5992
1888
11815
3813
711
8928
11183
3896
11039
8166
1372
6537
712
3329
8051
12071
10118
8163
12033
8908
11798
4392
7275
9266
1482
1489
104
10213
1794
8515
1821
2386
4315
11073
4156
1741
1658
212
9564
4508
6275
3058
323
11551
1097
12090
10043
1359
334
10571
3110
3474
2840
3691
1613
5837
792
233
6890
5382
1064
209
9371
1327
5692
7633
5042
4094
10263
2413
10744
5809
11887
9470
3542
3872
871
10317
1263
1618
7130
8314
11932
2414
5344
7075
8516
1220
7273
1765
4561
2456
8098
10909
2001
1513
6388
4629
2801
4802
7143
3582
2523
8937
6221
9395
8116
10646
9351
3078
5267
5372
6699
11854
10547
2110
5563
2375
11886
9365
1328
11981
2308
11195
3546
3527
10382
7258
5677
617
4047
10277
5227
6248
5955
9141
9417
6747
7861
2652
10077
11976
745
3541
12014
3745
2004
7731
4759
11721
3047
11513
10857
1336
8899
4607
5497
6772
3095
8524
3285
11754
7293
11487
3751
1313
4700
11893
5721
2903
11614
7336
3333
6597
7528
6027
3053
9085
976
6112
8370
653
9912
2269
5381
8128
7324
8111
7159
8625
6182
7826
6821
8122
611
4766
2114
4881
5805
12211
8498
3166
2602
7021
511
11395
7580
3015
4441
4463
8635
8074
9136
8066
