2696
1756
2528
194
240
2788
2007
2028
1874
1910
2566
2591
535
2977
457
266
2969
102
1640
2111
2389
1427
1618
2813
270
2387
568
1110
298
582
3010
2468
2991
2114
184
1242
1432
411
139
2738
1690
1226
246
2883
691
1694
2844
2424
1273
370
1078
1915
63
572
1952
2677
1791
2930
354
1553
1779
1055
794
51
567
2319
343
44
1713
2880
506
203
1453
2289
1316
254
2609
1187
188
554
2590
1818
642
2691
564
847
134
2477
1776
2079
2707
2833
2240
2849
1721
2209
678
555
1263
3041
932
52
2362
2183
1071
2861
174
479
2951
432
1032
1127
2654
178
2174
1613
0
2657
810
2032
2535
218
565
346
332
2375
251
144
2728
2618
32
2483
14
93
149
1345
486
257
1497
862
256
1575
1425
2597
2157
192
978
2655
527
1149
772
2095
685
2513
2768
1053
2891
1317
2775
1839
322
2043
1918
2828
1833
1213
2732
879
2766
1244
1146
601
2903
1351
1094
314
3029
756
1950
1992
1671
471
45
2185
2023
2263
2373
581
798
1057
1271
2594
1075
2929
736
2822
2216
368
1582
1748
1236
2399
1845
1123
1967
2341
741
1743
839
485
1378
211
450
926
1656
1103
175
2531
2763
449
511
1350
1352
2127
2116
2421
695
2581
2958
1921
1344
1376
196
1929
170
1268
2847
88
1272
900
881
2218
2684
2472
2461
1835
1637
3027
759
651
152
1498
1503
2645
25
1037
1832
2699
718
3053
1128
1953
1228
1307
321
1338
67
949
1954
2985
1609
3061
2086
2589
2772
1889
682
2147
952
124
2525
289
1029
2186
1177
1562
1047
2664
2935
291
2720
1803
637
176
1080
605
1745
2054
299
1289
1190
80
1586
2780
3063
1003
2099
416
1448
1506
1406
1689
1364
2376
331
439
2974
1407
141
2925
1377
1971
544
2500
874
1188
2087
1402
812
177
838
676
2314
2605
727
183
433
857
610
2463
2800
2325
1741
2394
1966
463
2355
1505
2542
162
2406
831
2287
2407
2118
443
1397
30
2033
2412
1993
173
1941
296
325
1225
1477
1090
2710
1234
1616
2488
1117
3012
1357
507
532
557
73
3002
1754
1375
1797
1192
2901
2789
1061
1472
1788
408
2810
962
430
423
2290
1584
1361
1288
2416
324
1210
1044
1714
528
3016
2642
2149
410
2364
2653
1727
239
3017
1736
2440
1336
2926
2003
2211
2234
897
2204
1657
2717
907
1474
2965
478
2236
1867
621
3019
2892
990
2742
693
1487
414
2705
2247
1960
3060
108
1023
2683
1106
2194
318
2893
1084
2348
1732
1041
402
1488
2545
2900
2803
765
1655
387
1089
1392
2496
1235
817
1793
1173
2512
1871
70
602
2964
2797
1837
56
1691
2547
2030
2281
1010
2009
1938
309
1940
927
1018
2923
680
1431
393
1588
495
789
2701
2148
1494
2882
2778
2031
940
612
2223
2067
2955
2692
1642
436
2064
120
1211
1607
912
1725
313
233
859
1239
1091
111
2059
1611
1511
1614
1913
472
2365
2769
2279
1423
650
2351
1801
2666
1883
361
135
1298
2221
776
2313
366
2153
29
2562
22
2119
1672
942
420
1456
460
43
87
840
1034
282
3031
1840
1898
2915
2702
533
2752
2835
2415
2997
3020
790
1395
1374
807
599
1465
2245
1161
1413
221
543
2987
2195
2818
1025
1370
1467
1450
598
2634
1995
272
521
3067
2622
594
2509
350
930
1093
2372
1850
2656
744
2058
1105
2917
168
2506
755
1749
1876
746
3009
1987
2288
219
367
3071
2332
2291
1563
351
2451
1200
903
2423
2754
2586
498
1718
210
809
679
227
365
2743
276
2420
670
2177
407
2022
1036
3056
2845
705
2464
1334
7
1097
1278
845
415
1001
1659
1270
937
199
283
231
2941
2306
96
1426
2632
1461
764
1911
1222
2931
2650
2884
2130
104
2284
1337
1937
1600
1547
729
2914
226
2841
2354
2166
1662
2014
2168
1777
2487
2665
2623
464
1533
801
1811
1451
1157
700
1670
2249
212
12
2972
422
1939
1027
2497
2299
2704
1518
2019
1554
1684
509
644
597
2202
2541
1933
2708
518
819
573
2998
2791
2469
2804
1233
2517
1502
123
2674
220
2976
358
829
1880
2961
259
2838
887
2830
1532
1052
2465
1178
1565
869
2782
2382
456
462
2918
2008
1576
381
1703
3054
761
2233
945
1468
1896
2639
805
1551
1964
1491
2417
2344
1114
1459
542
785
1330
1241
1860
1710
2611
1651
1422
864
2962
1783
1356
2478
2733
998
435
2121
237
2346
109
781
2456
163
288
252
1711
3026
1641
767
787
1366
1286
1320
2342
2335
2390
1064
944
1221
1295
2232
2457
461
1567
1517
157
911
2013
2855
677
1769
964
238
889
1159
243
100
315
2949
1102
867
1558
261
2630
2825
195
2213
1068
1829
179
1005
842
2374
2783
2875
340
1124
1237
748
1135
662
480
803
2190
979
2549
2493
549
1731
783
2774
1985
742
2473
1798
2439
929
2011
2430
3050
1073
247
871
1393
2551
2786
626
347
278
2349
2337
655
2771
1813
2689
2651
2475
1814
632
1048
445
617
1292
2834
1134
1196
1650
844
2615
547
1869
1261
2659
263
1321
2410
1912
353
1125
208
613
1738
1789
1583
1207
1206
1846
1587
57
2629
811
2246
561
2098
229
2570
1815
3058
538
1309
2724
2864
1100
999
2167
707
424
69
1195
2913
647
1778
2429
1956
1255
2644
1133
2866
620
965
1269
2793
3068
1591
1017
2579
2908
1475
279
2711
2862
1590
1011
1231
1739
553
834
657
596
2832
802
2189
3057
1556
2785
440
508
76
2005
1174
649
522
2159
1208
1577
654
2144
1957
2282
976
1742
630
2347
1593
1763
482
2029
