2696
1756
2528
194
240
2788
2007
2028
1874
1910
2566
2591
535
2977
457
266
2969
102
1640
2111
2389
1427
1618
2813
270
2387
568
1110
298
582
3010
2468
2991
2114
184
1242
1432
411
139
2738
1690
1226
246
2883
691
1694
2844
2424
1273
370
1078
1915
63
572
1952
2677
1791
2930
354
1553
1779
1055
794
51
567
2319
343
44
1713
2880
506
203
1453
2289
1316
254
2609
1187
188
554
2590
1818
642
2691
564
847
134
2477
1776
2079
2707
2833
2240
2849
1721
2209
678
555
1263
3041
932
52
2362
2183
1071
2861
174
479
2951
432
1032
1127
2654
178
2174
1613
0
2657
810
2032
2535
218
565
346
332
2375
251
144
2728
2618
32
2483
14
93
149
1345
486
257
1497
862
256
1575
1425
2597
2157
192
978
2655
527
1149
772
2095
685
2513
2768
1053
2891
1317
2775
1839
322
2043
1918
2828
1833
1213
2732
879
2766
1244
1146
601
2903
1351
1094
314
3029
756
1950
1992
1671
471
45
2185
2023
2263
2373
581
798
1057
1271
2594
1075
2929
736
2822
2216
368
1582
1748
1236
2399
1845
1123
1967
2341
741
1743
839
485
1378
211
450
926
1656
1103
175
2531
2763
449
511
1350
1352
2127
2116
2421
695
2581
2958
1921
1344
1376
196
1929
170
1268
2847
88
1272
900
881
2218
2684
2472
2461
1835
1637
3027
759
651
152
1498
1503
2645
25
1037
1832
2699
718
3053
1128
1953
1228
1307
321
1338
67
949
1954
2985
1609
3061
2086
2589
2772
1889
682
2147
952
124
2525
289
1029
2186
1177
1562
1047
2664
2935
291
2720
1803
637
176
1080
605
1745
2054
299
1289
1190
80
1586
2780
3063
1003
2099
416
1448
1506
1406
1689
1364
2376
331
439
2974
1407
141
2925
1377
1971
544
2500
874
1188
2087
1402
812
177
838
676
2314
2605
727
183
433
857
610
2463
2800
2325
1741
2394
1966
463
2355
1505
2542
162
2406
831
2287
2407
2118
443
1397
30
2033
2412
1993
173
1941
296
325
1225
1477
1090
2710
1234
1616
2488
1117
3012
1357
507
532
557
73
3002
1754
1375
1797
1192
2901
2789
1061
1472
1788
408
2810
962
430
423
2290
1584
1361
1288
2416
324
1210
1044
1714
528
3016
2642
2149
410
2364
2653
1727
239
3017
1736
2440
1336
2926
2003
2211
2234
897
2204
1657
2717
907
1474
2965
478
2236
1867
621
3019
2892
990
2742
693
1487
414
2705
2247
1960
3060
108
1023
2683
1106
2194
318
2893
1084
2348
1732
1041
402
1488
2545
2900
2803
765
1655
387
1089
1392
2496
1235
817
1793
1173
2512
1871
70
602
2964
2797
1837
56
1691
2547
2030
2281
1010
2009
1938
309
1940
927
1018
2923
680
1431
393
1588
495
789
2701
2148
1494
2882
2778
2031
940
612
2223
2067
2955
2692
1642
436
2064
120
1211
1607
912
1725
313
233
859
1239
1091
111
2059
1611
1511
1614
1913
472
2365
2769
2279
1423
650
2351
1801
2666
1883
361
135
1298
2221
776
2313
366
2153
29
2562
22
2119
1672
942
420
1456
460
43
87
840
1034
282
3031
1840
1898
2915
2702
533
2752
2835
2415
2997
3020
790
1395
1374
807
599
1465
2245
1161
1413
221
543
2987
2195
2818
1025
1370
1467
1450
598
2634
1995
272
521
3067
2622
594
2509
350
930
1093
2372
1850
2656
744
2058
1105
2917
168
2506
755
1749
1876
746
3009
1987
2288
219
367
3071
2332
2291
1563
351
2451
1200
903
2423
2754
2586
498
1718
210
809
679
227
365
2743
276
2420
670
2177
407
2022
1036
3056
2845
705
2464
1334
7
1097
1278
845
415
1001
1659
1270
937
199
283
231
2941
2306
96
1426
2632
1461
764
1911
1222
2931
2650
2884
2130
104
2284
1337
1937
1600
1547
729
2914
226
2841
2354
2166
1662
2014
2168
1777
2487
2665
2623
464
1533
801
1811
1451
1157
700
1670
2249
212
12
2972
422
1939
1027
2497
2299
2704
1518
2019
1554
1684
509
644
597
2202
2541
1933
2708
518
819
573
2998
2791
2469
2804
1233
2517
1502
123
2674
220
2976
358
829
1880
2961
259
2838
887
2830
1532
1052
2465
1178
1565
869
2782
2382
456
462
2918
2008
1576
381
1703
3054
761
2233
945
1468
1896
2639
805
1551
1964
1491
2417
2344
1114
1459
542
785
1330
1241
1860
1710
2611
1651
1422
864
2962
1783
1356
2478
2733
998
435
2121
237
2346
109
781
2456
163
288
252
1711
3026
1641
767
787
1366
1286
1320
2342
2335
2390
1064
944
1221
1295
2232
2457
461
1567
1517
157
911
2013
2855
677
1769
964
238
889
1159
243
100
315
2949
1102
867
1558
261
2630
2825
195
2213
1068
1829
179
1005
842
2374
2783
2875
340
1124
1237
748
1135
662
480
803
2190
979
2549
2493
549
1731
783
2774
1985
742
2473
1798
2439
929
2011
2430
3050
1073
247
871
1393
2551
2786
626
347
278
2349
2337
655
2771
1813
2689
2651
2475
1814
632
1048
445
617
1292
2834
1134
1196
1650
844
2615
547
1869
1261
2659
263
1321
2410
1912
353
1125
208
613
1738
1789
1583
1207
1206
1846
1587
57
2629
811
2246
561
2098
229
2570
1815
3058
538
1309
2724
2864
1100
999
2167
707
424
69
1195
2913
647
1778
2429
1956
1255
2644
1133
2866
620
965
1269
2793
3068
1591
1017
2579
2908
1475
279
2711
2862
1590
1011
1231
1739
553
834
657
596
2832
802
2189
3057
1556
2785
440
508
76
2005
1174
649
522
2159
1208
1577
654
2144
1957
2282
976
1742
630
2347
1593
1763
482
2029
1891
2626
2514
438
2809
969
2794
1926
2210
856
2248
166
59
611
530
1800
49
1564
2530
858
2329
48
719
2476
2899
2303
1677
1545
2334
1362
1359
1844
2010
2042
2404
2694
1822
297
1873
1264
958
1764
2117
349
2529
643
1116
1455
2016
1726
1878
2968
1113
2859
2627
1620
786
2759
140
788
2226
2083
714
1596
1623
3055
2112
618
406
1229
2293
1983
1204
2516
497
342
1936
2323
782
1543
303
1747
664
1716
1537
1510
2894
84
2863
941
961
841
1405
3022
2614
1340
290
1886
1179
604
2091
916
1313
1723
1099
1088
2151
2494
821
2527
1000
2646
18
1872
2886
1729
1322
1624
1509
1712
1566
2069
1436
2002
360
2620
2681
1861
1323
2124
344
986
2957
3037
1398
2134
1151
1665
85
2115
668
1014
128
1972
1557
891
1916
307
383
2587
2507
426
494
2260
2490
2251
1326
1373
275
489
2044
690
2526
1216
2902
2259
2131
1058
118
1024
1410
281
2995
2392
968
1220
1251
2126
2045
304
2178
1462
1602
2909
1444
575
2132
2635
2688
1830
1253
843
1381
269
629
1033
286
2714
300
2302
2162
1391
65
2274
890
2188
1862
1825
1437
230
503
1283
1429
2227
1302
1004
836
1628
374
1610
2163
1882
2543
2123
751
99
1817
866
910
1399
529
636
185
1260
2466
931
2593
2673
1476
2458
2120
607
1421
151
1360
2196
731
2503
1688
2795
23
1752
158
861
902
1512
1230
2310
444
3006
754
923
3042
2155
311
548
3040
1538
306
287
694
308
2377
749
2906
2808
1601
908
1979
2437
2339
2554
970
13
873
808
2641
514
2471
409
1442
2316
1385
1299
1674
2102
382
1660
2241
1927
2104
2367
552
222
1096
2661
8
1559
316
427
1411
105
1612
142
121
2428
2933
1189
2001
2663
1446
115
2939
1746
2676
2865
3018
2709
2938
672
1578
1720
591
3062
888
1849
2499
1951
213
778
2184
800
2540
3028
1608
2340
2727
2854
1343
273
71
1885
1087
394
583
2066
2071
500
2084
2755
3051
2806
1552
1259
1697
2296
205
733
2228
526
1454
898
377
1820
3039
1525
386
198
1050
590
519
2073
2093
429
1083
207
491
1412
2980
792
2553
1186
1185
2495
1419
2292
83
2426
2802
20
1457
2756
2040
2758
2181
973
2857
883
1098
156
2333
886
3070
1681
2538
1580
2596
1924
1909
2713
458
2170
78
2982
1056
906
1847
2268
2761
380
947
1805
2176
715
2015
686
2628
1293
305
209
2585
2275
3047
1626
885
2911
917
1904
2948
191
1842
2089
1265
483
915
2662
277
988
1536
2467
1717
571
1435
993
1483
1480
585
2858
3065
1349
1007
674
1784
855
447
1760
2715
1706
2315
2740
2442
1809
2736
1247
294
588
1281
2746
1922
2230
1740
2309
1417
425
534
1054
1963
2762
1507
132
1945
2921
421
2723
2090
2821
1368
556
2107
1569
2744
570
352
91
2175
2595
1170
1572
1285
1795
2533
1897
1735
697
2567
348
2564
2403
2600
2222
1137
2819
2827
3044
3025
1339
2550
453
913
1199
1274
1965
37
974
2837
983
1902
2108
1418
1284
39
1486
2481
169
1355
737
1770
2765
1999
634
2712
2020
1290
1380
579
328
2229
892
1948
780
159
2812
1744
2381
61
849
2954
2960
2447
1043
3008
1544
2037
1709
1070
53
2501
258
505
752
2097
217
824
1606
3069
2330
1389
2563
1266
2737
1804
1598
1730
771
2870
2453
2750
1085
1812
1621
1325
2172
1644
1807
1737
1980
1771
2413
1808
1163
963
2970
2297
398
584
948
704
431
292
145
323
2161
1165
1452
2
576
2357
339
1877
1675
925
265
376
1962
1463
271
696
3045
244
2881
476
1786
2716
1947
1767
2599
2851
3023
2025
2164
250
413
545
1193
738
310
1780
893
1131
1449
2975
15
2051
721
1420
2698
981
1973
1539
2592
1550
2480
363
982
182
985
2258
1194
1864
1766
1121
187
619
1702
1175
1182
2441
2254
614
1513
1466
401
994
934
371
2024
2219
593
2012
726
826
1765
687
2269
136
2508
628
334
390
2366
1109
1831
2764
710
1039
2360
1949
2658
1561
2823
1594
2916
2582
1112
465
1560
1223
2053
3038
2405
1508
1104
660
338
215
1615
2018
2576
2872
1592
2751
1775
2584
816
1067
2080
274
2722
865
101
1501
2203
171
107
1961
1521
3059
2256
2840
1859
2092
2063
2307
2397
2638
2077
295
712
72
1524
2548
2624
2953
481
2272
1530
2616
1514
3030
1762
1490
1171
2510
1925
2603
2273
2270
2328
405
757
2057
2238
1978
97
1333
2446
743
806
2836
2877
2560
1535
3014
2242
2400
148
1868
2103
2004
1315
692
818
1728
1386
2338
2106
1599
2418
2515
701
1977
2721
921
1424
1708
905
454
2252
3034
2889
1866
167
730
2212
1310
26
2034
1652
1622
587
1401
997
1176
1700
1040
33
2262
2425
1379
41
2312
2243
2670
2215
1907
2140
609
1132
28
441
2046
2484
493
1258
1301
2601
2422
1382
1304
236
551
520
2271
1232
1138
720
735
2718
1750
58
631
1181
2257
592
1303
1387
2890
2967
3066
2283
939
2856
1249
904
2606
1279
2459
2947
2179
2577
2523
1142
2438
706
2706
1022
745
1546
2414
2096
1991
513
81
2726
1308
2555
914
1404
1647
2826
1108
150
2792
774
329
6
943
822
734
909
468
181
164
1523
451
2990
490
813
1143
1311
2298
1111
2922
1826
1441
2285
1006
1627
1632
1074
578
2154
2402
2320
2359
327
1790
442
1858
2401
312
832
2431
2244
1414
1201
2371
1499
1988
86
1403
2994
2380
1481
777
799
1666
1894
54
2419
1287
1920
1667
2649
2208
1701
1245
113
2874
987
501
2206
1009
1198
1394
589
768
17
1042
1447
3015
285
2703
428
1328
2050
669
31
1341
722
951
1914
2350
214
989
1164
2860
2784
326
560
1383
1724
1086
2610
341
1653
147
2396
2470
1107
848
966
1072
2522
1905
155
665
661
1002
2398
2578
2719
1879
2885
1203
1990
24
2878
2078
2129
2356
875
2760
938
2971
3043
385
2602
2250
2138
936
2643
2993
1332
1934
935
566
1854
2753
1645
2171
1792
1430
2378
1013
1928
2304
126
2552
1347
355
827
1639
984
362
345
2110
2907
711
2113
10
2474
1834
793
2831
94
129
2295
2973
1900
2452
1932
2781
1865
1658
516
1857
1277
950
1120
419
922
3033
477
2035
2748
1692
2266
1471
1202
1669
2932
1970
820
1997
2936
1248
2725
2678
1046
1888
615
1318
2952
2136
2686
1772
3021
131
77
2052
724
1314
1851
2353
2574
1372
1855
1319
2942
2225
375
1908
333
2308
2358
1604
1118
2896
1943
2318
2583
1342
320
1619
2505
2060
1673
1942
260
2411
2039
689
901
2026
138
1917
1828
1573
319
653
2137
2379
558
2187
112
531
224
723
2486
2633
1433
2498
1458
2984
846
193
1464
946
2021
1629
117
645
1870
3
74
1755
467
5
1246
919
228
1063
242
2959
1160
2575
1526
1605
2852
2384
2607
1989
2409
1975
1761
1305
1541
622
2370
1493
110
2321
1169
2519
232
66
2943
2072
2192
536
125
2133
1254
2730
1976
2816
2383
2075
484
1654
2741
2322
2462
1774
918
1646
1026
1030
882
1335
2276
364
2125
27
473
525
725
55
638
302
2672
1276
2700
624
2055
1280
1049
336
47
106
1079
2286
2261
1144
2443
1836
1753
1101
1968
523
2280
1428
2671
603
1489
2408
60
2815
671
92
666
1887
280
1719
359
899
1935
1994
2369
760
2158
2687
42
2173
204
1473
2100
68
1875
2436
2231
137
796
2180
2128
758
541
1019
2345
165
248
1331
2017
446
1358
2145
1329
2978
2150
434
2122
577
2448
2807
1848
762
388
235
2669
1984
267
770
2165
437
673
249
2201
1574
2142
2081
2682
2631
2805
448
1469
716
2697
2679
2048
1901
1168
82
2482
1460
1893
1668
2000
475
517
404
384
2668
2152
1633
2927
688
1240
62
852
2817
2536
1262
223
2193
373
1824
2820
2937
2667
2749
9
1944
1838
708
255
1617
389
1581
924
2036
2460
1224
1946
739
40
868
539
2571
1371
1145
1031
372
667
357
967
1353
1035
470
1396
2685
1549
1256
2094
1555
2652
1250
1699
1252
2848
79
1172
814
1852
2220
2905
2105
133
1140
933
928
823
1531
1214
504
3036
2395
1996
2434
1958
1384
894
828
2988
1683
2637
2621
2573
652
172
38
2928
713
90
3024
1205
2648
1827
1155
1324
216
510
1680
499
2539
1856
1388
1519
2386
2787
2076
1540
1217
1416
2217
2580
1676
1197
1542
953
750
234
732
3064
1156
2636
2445
1209
1065
2156
1062
1167
1492
2534
884
143
3011
850
717
2910
2502
264
75
2492
395
2608
2224
2867
396
1365
2561
1903
595
2109
1296
1821
872
2979
2326
1548
36
2588
2143
2619
977
1571
1122
2239
2504
1892
675
728
412
1516
1649
825
616
114
417
1625
3007
89
2082
753
2546
1630
11
2444
284
1066
1191
1440
2869
2868
2776
1568
2427
2963
1687
851
2207
895
496
2305
1782
335
515
1348
1015
2876
2871
1781
2569
1785
2070
356
2920
1312
1635
550
2388
2479
2521
2265
1227
2745
957
1773
2141
1008
1092
2739
996
1679
153
2850
580
1470
703
1212
896
487
559
1141
1119
512
633
2647
1664
1012
1931
1150
2873
116
740
2829
1974
1081
1810
830
119
656
2798
2757
3000
635
369
268
46
991
876
773
1219
1126
4
1595
2311
2940
2491
1077
837
681
1715
2352
2617
2361
2197
1148
574
50
853
1982
1823
833
1115
1166
2518
1906
971
399
2559
2368
19
684
35
2897
524
2455
920
1841
1890
537
1705
2999
245
784
1409
2537
154
1686
625
2944
1346
569
3001
1758
1816
2065
127
3049
2006
980
3046
190
1139
992
699
606
180
301
2544
2843
1060
2887
2946
2565
1069
2524
2205
1243
16
3052
546
658
2770
2801
1504
959
2331
797
225
2074
1799
2485
3032
2277
2085
1693
1045
469
954
3048
2735
639
2846
1218
1158
1415
2779
1527
2989
1300
2934
1603
160
1704
956
2983
877
1919
1884
2200
98
2895
2557
253
103
1445
1443
1648
586
627
1696
2101
2199
403
1154
2255
1682
2056
2912
452
2301
1327
2049
880
2986
623
2393
2839
1787
262
1634
1438
2198
1969
2520
1802
640
2385
2598
2898
1959
488
1843
1734
146
1534
1986
1369
2450
3004
2811
659
1794
2511
186
1147
608
2191
2799
1930
197
2327
293
766
400
122
202
835
2294
1439
1733
1695
2996
1707
2981
1153
1661
2432
1759
854
1589
2267
641
1
2160
698
1636
1291
2924
2489
1520
1853
1136
2966
1631
1998
663
683
1257
317
648
1434
1479
709
1282
1768
972
2675
2680
1306
1400
1408
2237
1496
2038
1529
1663
1354
2992
3013
1643
1051
795
2693
1597
2604
2729
2625
1819
1722
1183
2572
1059
540
1678
2796
2956
2532
1757
1923
95
1020
563
2790
863
1484
1881
1038
206
392
2842
870
397
2814
2950
1028
2690
1485
2660
960
1570
2773
1895
2731
2146
804
1751
2454
502
779
1863
200
2182
2088
2278
1796
378
2336
418
1698
391
2640
1522
1162
1495
2695
2027
1152
1367
2568
64
2062
1180
492
379
2235
763
2264
791
1076
878
337
2767
2343
1016
1275
455
815
2317
995
1981
201
161
1579
2777
2449
702
1500
1129
2613
1021
1585
1955
2253
34
775
2556
1478
3003
1390
2139
1363
2945
2612
2824
2041
241
2061
2363
600
2435
1297
2214
2888
2068
646
1528
2879
1267
1899
562
3035
2734
3005
189
1806
975
2747
2047
2558
1082
474
2904
747
2300
21
459
1184
2324
955
1215
2433
2853
1515
2391
769
1685
130
2919
2135
1482
330
1238
466
2169
1638
1095
1130
1294
860
