2536
1210
7782
9493
4901
10200
9289
11525
8170
8021
7171
8278
5804
9438
2337
9566
8408
2715
1825
10768
8629
6298
4110
4923
11081
4771
6669
5199
11206
538
4089
11102
10648
5825
3098
2422
5908
2692
4170
5046
8698
2982
11298
10126
10129
6649
5597
5100
8854
3698
11400
6559
12080
3160
5620
3035
5118
12190
2392
7653
12215
5547
3834
3424
6897
1683
10881
6618
1483
3995
357
4192
3909
8776
4353
2517
2231
3785
11270
7894
10543
2543
5767
2154
9210
7413
3045
1743
6011
379
10829
2252
7065
10872
4303
450
3975
5281
3288
4024
3573
4026
1358
2009
2495
10389
8481
5580
9414
2227
3118
473
10574
3006
3671
5582
6561
12084
3658
11205
2856
9968
9088
8390
5202
10141
12113
2629
5682
9381
11604
7932
247
6560
1941
3455
218
3353
6872
7690
4333
11260
9613
11094
3279
2527
3238
3941
11042
10356
11586
11100
6914
9747
7501
2325
7975
1739
10336
6790
8764
200
10351
11802
2540
5147
11797
4630
1621
3994
5814
613
7757
9659
2929
2388
5961
2559
4532
3800
10600
4982
9037
5235
3717
8468
102
5065
4281
4489
533
4411
8849
5853
3501
11203
747
11348
10528
3422
3222
2250
6791
304
4459
2316
2290
6630
6724
3082
4688
135
9814
9220
4245
2389
3777
360
9790
9716
3065
2688
7824
8926
4663
5967
7116
4073
1208
7592
11236
2184
10790
12231
1981
11901
1153
10960
10341
10548
1217
9583
6037
927
2012
11660
396
3059
149
8388
2119
7417
293
10718
8214
3649
11044
311
971
4122
8850
4919
10373
4238
8094
5616
7387
4127
2142
7558
10560
2201
7438
10272
5985
4030
11961
6857
5605
6753
8686
4104
70
2820
4003
10592
11264
8651
3728
1643
10163
4746
8020
3973
5099
2453
2417
7204
6146
7787
7914
8359
8735
11305
1923
5082
47
1965
10297
385
5391
221
8139
8341
11323
624
8251
4336
7033
6073
1197
967
10588
10057
7897
4810
429
2935
8489
6333
5996
11701
2239
2232
9368
11463
6500
11012
6427
6237
4880
10010
1323
19
4438
9119
3043
9591
4985
3819
2664
828
4918
673
7247
3615
11783
4404
937
5384
8039
6074
2288
11028
3495
7498
10132
3325
8630
5430
4201
8146
11248
9489
8045
10290
7985
11504
9647
7976
10064
7974
6839
4099
2732
5129
5404
12051
10124
11124
749
6529
518
10947
9456
7443
5848
11232
3620
3614
4147
9525
4337
10069
4448
3532
9173
11934
7249
6134
2980
6794
9601
10324
12261
1602
5288
5211
290
6825
4783
1213
2218
5812
8328
6196
8346
3855
7665
4475
5938
1964
95
33
5095
2586
9712
9380
3651
6307
8626
59
10260
1139
5762
2039
3037
3400
7883
7144
6057
7854
2236
3187
1950
5761
1068
9572
7766
7601
2340
10109
4826
7850
6096
1793
6739
2102
11580
3154
7746
3846
5654
6045
8509
5038
9134
5284
1006
3706
373
1002
10302
3328
1722
7477
7563
8868
3838
10075
7566
4237
1413
101
3013
7134
3528
10609
10665
10776
2973
5130
10745
11765
11691
11788
12248
12096
7836
6487
11082
99
10749
11801
2596
3772
5025
9690
2318
2576
9083
11234
8900
11089
2420
5111
10110
7520
119
4767
5627
3194
4347
1188
3143
6572
1175
10280
6449
1053
6044
6654
7799
12205
11022
2034
1498
744
2609
5666
3139
5218
12070
11742
2301
9889
1720
10709
5494
7756
4983
2168
10447
8265
424
554
5781
487
7889
8637
7717
5389
10823
3233
8217
2167
468
4860
5282
7954
7620
741
9992
1740
3372
839
2582
3547
11559
3693
2709
9189
9008
1984
3487
7540
12210
5538
7583
5963
5337
6088
245
3393
10990
9537
10128
3794
1864
4584
7893
6975
724
11866
5707
1368
9632
9334
4012
5502
12222
6759
461
6830
1010
2333
932
1121
1701
14
9156
10335
7080
3685
2873
3914
11777
5778
5306
5265
4877
6255
8818
3299
6030
1634
8788
8589
6670
7388
3647
8952
2963
7234
1282
4216
7495
214
5438
9990
5239
3853
3524
4914
7493
7113
2020
11458
3912
9529
772
3433
11427
5058
6125
3297
6373
3519
7377
647
5711
10145
8811
9341
2616
736
8206
2372
7463
7254
1178
10650
7272
31
9416
7229
7603
1586
6870
2380
9683
6023
2174
50
9956
483
11416
11114
3742
5279
8606
7039
8653
8617
10747
6497
8419
9668
11811
10686
1047
299
8300
2366
11077
5504
856
3105
5385
5700
7760
11268
6431
668
2608
3464
6292
10054
3116
8158
8281
2109
11308
9494
10398
3418
8291
4833
6632
1320
1236
9928
970
9534
12117
2554
8097
5945
9419
5687
8064
1373
5817
1250
8825
6105
8802
3827
1402
7764
10184
6071
895
10992
7061
11201
9488
12145
10741
1408
7682
11389
1261
1039
8947
10987
6321
9820
434
7017
3272
8188
2407
5481
5303
3710
8583
11838
12039
1732
1457
12220
9036
4301
5053
8075
5766
8042
5733
6072
10391
5561
4600
2270
6848
2342
10410
3522
5611
850
9535
9783
11392
9858
107
9682
8747
5317
6407
2054
5768
11009
4653
1078
3944
3070
993
3274
217
5349
9500
8151
4655
3550
1595
510
700
5024
9230
1399
7981
9479
4483
573
8693
39
4948
4393
11796
7092
2760
3668
10165
6482
2614
11200
6695
12219
8330
4843
1662
346
6878
11884
11883
3434
2150
6786
10803
251
2754
3429
1512
11473
12038
6137
10955
11026
10815
8729
6661
11680
8069
6245
7013
7886
5914
5503
811
9115
11809
7964
1142
9677
10602
4381
7637
8457
812
8870
177
10330
5272
4707
10780
1570
8478
6779
8749
11282
10771
1427
8413
1369
4040
8180
457
10711
1434
11351
8934
9811
12060
4043
11171
1971
1421
11847
1022
4828
5910
9332
2798
10170
3776
4993
2088
9225
7416
7505
5629
2238
1470
9573
5152
11947
6390
2611
10088
1275
6604
2791
333
5044
3523
7720
8057
1516
303
11919
4291
9377
10655
5499
10999
210
8708
4436
9546
651
11226
8121
10364
8301
2348
2589
3265
9267
7844
9842
11560
9585
7765
5465
1791
10487
4541
10481
8229
2267
