139
864
291
1242
599
1236
598
416
314
1264
170
408
1228
2126
102
1553
1656
727
602
3038
642
1582
479
3016
2411
2815
2676
2909
2933
1502
1221
257
1093
2757
2605
2666
17
2451
2992
2292
192
572
2009
596
2229
2375
1133
1392
2037
1966
1749
1677
1211
805
2250
637
211
538
410
2874
1954
251
1777
2527
1032
990
214
3008
2684
2251
1992
134
2898
1094
1657
2031
2195
2249
2023
1011
44
2968
1911
2756
962
2488
1569
254
554
1623
1006
2260
1313
999
203
2154
299
2903
3026
2425
1602
1436
2873
2364
2570
2259
194
2119
2497
3045
1159
1965
2510
2181
2577
463
332
2846
2931
2810
2885
952
368
52
929
450
1565
51
1431
63
2417
256
2764
926
612
240
1557
1727
1302
270
70
2281
528
1100
889
840
2610
801
2213
2505
2708
1611
507
2867
2057
879
298
457
2378
178
1146
432
691
1195
1216
812
1666
76
438
430
1494
144
2855
45
2840
354
2979
3152
1298
2972
152
2543
1074
3017
1263
0
506
3114
937
2825
1108
322
1860
1533
1808
1474
32
218
2560
14
93
239
2880
1518
705
149
2713
2553
2978
184
3014
321
578
1896
485
2986
1979
2010
621
1747
1376
1404
610
1235
2736
1748
605
1377
346
289
3046
3149
2580
2636
1902
2706
1161
174
1402
2258
120
1803
2862
1593
1880
2910
229
1952
2274
3105
2316
188
1053
2290
1391
2360
1559
887
2961
1886
601
246
2163
682
1157
309
1624
2704
527
532
2238
2024
1784
2897
1651
1763
2405
897
2387
568
2241
175
564
2997
1220
1716
1620
2588
2104
495
2763
387
3012
2913
790
1950
2374
867
1437
1149
1029
2566
1786
471
1961
266
196
676
88
1769
1770
1697
3158
2495
1462
423
1196
1789
2372
25
1455
1025
1963
433
1064
2718
331
729
2516
2040
3083
1423
67
1116
2688
764
31
1536
1351
2297
2256
839
1577
2016
2930
343
1940
685
166
124
2993
414
2949
581
449
3090
2724
1425
2744
2452
1869
785
486
1178
1924
1743
176
776
2441
2607
2186
2483
1971
2616
862
80
1442
2348
2103
2792
2354
411
2475
442
949
3075
370
2232
3049
718
2893
478
1586
439
3111
1642
1052
141
3047
1742
557
1465
2080
2046
2419
976
2166
1554
2155
759
912
177
1744
2876
2948
1833
2279
2407
944
183
1538
1271
679
2077
511
2401
1068
1057
2575
501
1723
393
1213
2985
2440
162
772
1350
932
443
1422
2093
1412
1480
761
1044
1472
1177
30
3147
2782
2721
2246
173
2177
296
325
1299
1451
279
594
1411
2780
582
1225
2889
2820
2144
3157
1525
2113
73
555
48
2291
611
3129
1491
1918
2302
2621
1370
1868
402
1760
1123
2664
2965
765
2465
1957
1457
1089
2365
1018
1694
2366
1689
1726
1798
324
831
1106
2817
2248
1988
1487
2221
2310
544
942
2132
1842
2548
2592
1421
964
2285
2115
2464
2940
1075
1034
2838
3116
654
3039
1736
829
3085
2963
2611
108
2798
1234
318
2725
1288
1102
3082
2500
1866
3079
1419
1632
2206
2907
2390
670
1073
1874
56
1804
1644
2140
3062
468
2097
1960
535
567
2852
2966
2276
2098
700
69
3030
1754
436
2131
1618
1017
2987
565
313
233
3028
2692
2550
111
2357
2196
3123
2854
736
472
695
1628
2443
1835
1641
1962
693
2112
1084
1309
361
135
1378
2295
1360
2389
366
1882
29
2641
22
1174
2185
1042
420
1551
460
43
87
1151
1691
1432
561
282
2438
678
2018
3001
903
533
1681
2590
1192
2748
2525
2980
1188
680
1090
1113
2509
2003
2320
2574
1506
1873
221
543
1702
2268
756
789
3009
1563
2791
817
940
2092
1814
272
521
522
1977
1010
1047
350
1210
2422
2448
651
838
2845
2935
2461
2106
2058
168
2645
3000
1345
1752
945
1023
1587
1818
1385
3109
219
367
1922
3057
2408
2262
1468
351
1105
1317
1233
490
2836
2503
498
1832
210
3108
755
650
227
365
734
276
2108
2761
746
1078
807
407
2426
2211
2467
859
2271
2540
794
7
2788
1357
1320
415
1071
2668
1912
2307
199
1091
1124
283
231
1316
2600
96
2482
2711
1556
857
2596
1839
3018
2994
1575
1737
104
2359
1173
2554
2463
1048
1731
1706
2591
744
226
1244
2209
2430
1713
1775
1037
798
2506
1027
1364
2587
810
3128
1813
2102
464
1780
3161
874
2969
1253
1117
1783
2552
212
12
3060
422
1128
1061
2658
1467
741
2785
1103
1545
809
2872
1797
509
644
597
2723
2914
3126
869
2789
518
2624
900
573
3086
2875
1237
2170
2593
1283
1601
123
2561
220
819
3064
358
930
2786
2071
1811
1746
259
2924
2424
2739
2526
1610
1114
2541
2887
1671
1261
2866
2458
456
462
2353
2709
2691
2400
381
2950
1800
1840
2947
978
1003
2944
2643
59
2030
2869
2806
1590
2493
2420
1334
657
1323
845
542
881
1414
2542
2005
969
927
3097
1670
1517
1459
3050
2620
1444
2555
2212
1650
435
2999
237
2670
1127
109
2333
781
2174
163
288
1190
252
1456
2216
2373
767
787
1454
1725
2042
1080
1097
1567
2466
3122
1041
1295
1375
847
2382
2533
461
2308
2563
157
2673
2096
1820
677
1889
1036
238
2515
1231
243
100
315
1614
1771
3022
1621
261
1001
1849
195
1995
1255
1951
179
834
842
2916
2745
2499
340
1187
2477
748
1200
662
480
803
2263
1239
1511
2571
549
1272
783
2858
2651
742
2549
2851
965
2335
3052
2176
2769
2245
1135
247
871
1268
1909
2870
626
347
278
2004
2413
655
1366
979
1543
907
2770
2730
2410
911
3007
632
1110
445
617
