8161
11065
3307
744
6351
3509
8531
10878
4716
7347
9185
10446
1512
10862
9967
5169
11775
3204
6459
2310
2536
6932
19
9201
6161
10083
11734
7820
7310
3946
5106
613
5032
8405
1408
3693
3928
4397
1010
5289
2201
9674
11695
3706
4629
6954
6508
850
10926
9157
11654
6935
1418
3746
10830
1432
1022
647
5735
1142
6326
8572
11507
1950
3247
1747
533
3616
5601
4205
7861
3838
10551
970
6639
10507
11196
9915
11352
4587
8802
8248
149
1650
5608
8805
9156
1275
7799
6041
396
4981
3858
8723
10153
5632
5391
5071
11723
10621
9426
8933
4718
6275
4084
3413
1323
3852
2232
8115
10063
6911
5114
4253
3316
4672
3984
6118
11541
7664
5579
9774
8713
4111
10635
8854
7286
7328
8076
9045
6641
6181
2807
10075
8607
6661
8779
6200
5389
2759
3593
10000
5731
6624
10963
2922
11159
10974
2328
9283
101
8268
2455
900
3782
6333
8430
4412
6291
7001
2039
862
4442
99
5559
385
429
1643
2715
5397
5773
7387
5377
8971
2909
6131
8536
9825
3635
4643
1662
5504
6255
10020
1670
483
6385
119
4600
3989
2771
7584
11468
11478
10166
5577
3461
2231
5204
8468
10274
10799
9773
3488
8593
5272
10655
3658
9868
914
1068
7073
2439
10954
6883
10189
2531
3068
5271
11514
4271
5030
6753
4047
10407
6768
1355
7066
4708
6086
2777
2034
3910
461
1470
4747
5990
2407
6975
3038
7930
3724
8524
304
2818
8064
10493
4099
5396
200
10104
4010
9815
379
6717
9527
7189
5871
9248
5007
6175
5641
4448
47
3813
10727
2252
5635
8594
1671
624
9614
2021
10321
7359
9388
9792
3601
245
7882
2301
7469
1720
2714
6196
9362
8185
4618
4477
2183
7202
8083
958
6098
2154
5865
4862
7755
8431
518
7217
3997
9844
11546
8874
2631
10271
4782
8677
4884
6429
3784
9953
6345
6286
8890
1277
3501
1634
6845
1320
1433
9748
4457
6383
4382
1496
8720
8695
10505
468
14
5144
2054
2791
6521
9298
11770
5130
4640
487
1479
9276
6742
2755
2325
1219
5277
1383
8124
1744
8997
1954
5477
1166
10973
6323
6698
4207
9763
1978
7143
8089
9403
4676
9173
4738
4046
5746
1983
4584
8272
8153
2873
50
9649
4960
10120
5508
5896
95
6558
3643
8969
11782
10355
3991
3133
9761
700
1053
3059
4537
8005
218
214
6825
9617
7612
4580
1617
7273
7954
4128
3353
7250
2288
3412
932
1178
6884
6220
1121
8233
6878
8379
10434
4687
967
573
8710
8912
357
3208
3329
651
6630
7798
856
2348
2157
7309
5421
8126
3800
5702
10455
11436
9450
10229
4975
4228
3131
11405
4376
11486
1002
6191
4262
554
4991
4698
8359
7585
5886
1261
6578
6106
9784
8399
9927
7828
9190
5361
2046
2167
6365
2069
6270
9995
3620
7873
8492
4190
4871
5399
11720
11069
7008
424
1139
11737
1579
5118
8981
3668
6485
11298
5787
8765
5465
11611
10534
6715
2127
8501
8118
10890
5062
7484
5943
4706
11594
7931
11497
4365
10546
6912
8380
7872
2474
9870
9782
5151
107
3429
2464
6444
5714
2085
5833
217
1964
11537
1851
9665
510
6586
3707
3065
9238
39
9056
3621
3914
1491
2483
8145
5748
2465
10796
7893
8870
10151
2664
346
4877
4202
10549
8395
5728
2992
6428
8584
4890
8985
9055
8487
9162
5957
811
3094
7487
177
11044
5936
5847
2215
3524
8950
457
3702
7384
668
749
1883
908
7780
2487
9569
7894
4674
1368
11107
8679
4783
3842
4219
3143
303
4104
9053
10858
9705
7887
210
9019
4466
9112
9988
2678
2954
4098
2859
9027
6929
11450
10421
7457
9035
3160
2214
9240
2442
6637
398
6836
9810
321
7237
6498
4467
11365
1730
764
1413
6176
4250
5427
8778
5553
9264
2150
4870
8209
3037
3948
11386
10596
6392
473
1175
1768
9199
2586
4513
10235
2360
10648
1501
4722
2626
5113
4847
7691
251
10825
673
11634
747
10759
1213
3400
1807
2826
6536
10685
4023
10834
2372
3585
3963
5863
7042
1786
11371
2290
1393
8107
6874
6860
9457
9939
2357
6719
4094
9258
10868
10582
4914
7750
6211
2625
1530
2507
1347
11528
9559
3855
562
10484
6909
9369
8457
8973
10241
3463
8704
7840
10201
5736
5170
8466
9263
6167
8111
4808
592
2879
1766
4335
6671
2142
180
5426
9514
5333
2615
33
4489
6377
2919
2342
4898
9134
9478
3437
9262
7458
4414
3705
6290
5400
9535
9289
4532
10333
2753
11635
8071
7636
3048
9726
1713
11743
10164
10298
839
8904
1217
8163
9187
9237
8486
4521
11272
1369
9624
2884
1457
10853
8994
8140
9040
8046
7613
5700
10109
11659
5683
7110
11593
11722
8360
3468
4924
11777
408
6375
2319
1971
6037
10985
3678
2020
6431
6856
6182
11667
9963
2422
9639
4096
4702
3958
4419
812
9878
6408
6734
8957
9023
10061
11684
6157
10967
10528
8872
4754
330
1035
2986
4132
1793
4714
4731
5297
6203
3694
9676
5667
4812
10307
9566
7803
3781
2087
5853
5758
5369
3761
9528
4281
11333
92
41
6625
4483
10820
2847
1006
8417
2858
9646
6433
7515
5303
6109
11359
1665
1614
9724
2894
5424
1984
4003
10208
6908
2227
8047
10561
10388
11414
9387
5851
4949
9393
3263
8614
85
1039
10929
135
9549
11639
5576
5799
11167
318
10643
9307
5965
5025
11742
9964
927
9981
1701
3742
6162
5719
7054
5049
9742
8600
5019
11774
5549
11217
10599
8451
8471
4822
1623
11059
8109
6153
4192
7889
2540
11190
7157
10575
11180
3873
11179
8653
3126
10886
9259
8796
11114
3014
4374
70
9910
5230
9578
6213
868
7332
6605
4978
11501
360
10690
9096
7972
1453
10132
3061
7235
10159
2337
7191
5761
5835
1078
1626
3819
3021
11060
4601
6214
8348
2495
4060
6688
7665
10940
9365
5484
1941
5261
7028
11150
2638
8290
8349
9661
11212
1511
8947
8257
2036
465
8507
6127
8902
2144
248
11601
7845
434
1399
9089
2174
7506
10285
2452
