158
451
55
247
70
376
382
81
516
144
218
76
375
199
137
163
132
10
78
311
238
165
6
177
261
167
320
440
86
408
265
522
469
73
546
444
30
211
264
84
553
39
529
220
2
140
477
210
145
274
480
524
449
525
520
402
460
235
228
290
487
396
299
83
227
544
172
117
72
547
321
79
9
109
257
431
101
519
90
82
234
131
209
77
393
507
304
319
280
176
75
231
473
250
68
453
63
370
486
104
88
323
482
33
554
380
0
11
374
22
381
373
182
89
185
148
204
551
153
277
184
18
249
495
429
192
222
15
550
54
348
46
93
411
245
497
557
485
377
394
328
362
341
481
410
69
284
155
188
517
149
124
405
494
244
369
352
384
316
512
395
271
141
318
399
457
19
412
56
442
291
447
346
456
501
208
25
383
301
502
42
360
255
195
332
329
154
126
298
386
174
31
113
531
173
272
322
57
278
24
17
542
66
530
286
540
275
463
465
94
180
398
92
23
287
310
268
5
116
45
248
334
436
16
48
355
423
3
367
432
60
196
331
537
110
528
312
29
521
225
515
26
7
181
50
108
229
37
157
237
532
118
424
114
493
203
175
433
302
194
438
67
536
168
281
446
193
152
407
428
422
289
103
470
74
365
535
119
333
353
420
472
305
296
349
509
325
36
139
253
336
59
111
533
356
262
508
297
150
266
452
38
545
198
307
146
464
147
363
338
123
437
96
143
239
324
97
467
293
416
122
183
202
246
361
404
434
354
468
335
125
357
223
496
219
129
498
340
388
448
342
421
371
294
556
490
425
112
179
364
400
390
314
151
426
233
306
368
164
317
136
197
414
258
232
115
120
539
224
527
415
347
127
548
285
513
488
107
439
538
133
506
44
169
65
283
85
242
186
479
159
12
35
28
170
142
471
403
221
499
95
51
240
441
351
450
178
462
41
514
534
206
392
282
358
397
254
489
4
256
523
100
226
505
213
500
171
98
292
215
61
406
47
32
417
267
327
200
134
27
478
230
260
378
288
418
162
391
503
138
62
135
128
541
8
326
344
64
300
14
156
40
379
187
492
216
409
279
52
511
337
236
207
212
295
526
251
549
461
455
555
303
350
269
483
445
201
161
43
217
401
190
476
309
259
105
53
389
1
518
359
49
419
80
205
34
430
263
427
454
443
366
91
339
345
241
13
315
387
273
166
552
484
543
504
243
189
475
510
58
474
252
21
313
459
160
276
191
385
413
491
343
308
130
99
372
87
458
330
214
466
121
