158
450
55
247
70
375
381
81
515
144
218
76
338
199
137
163
132
10
78
310
238
165
6
177
261
167
319
439
86
407
265
482
365
73
545
509
30
211
264
84
552
39
528
220
2
140
539
210
145
274
479
503
448
524
519
489
533
235
228
290
486
395
298
83
227
543
172
117
72
299
320
79
9
109
257
405
101
518
90
82
234
131
209
77
411
506
480
318
280
176
75
231
472
250
68
342
63
369
485
104
88
322
349
33
553
505
0
11
373
22
380
329
182
89
185
148
204
550
153
277
184
18
249
494
428
192
222
15
478
54
370
46
93
410
245
325
556
433
376
393
555
357
340
302
465
69
284
155
188
403
149
124
404
493
244
368
532
383
516
511
394
271
141
408
386
456
19
446
56
441
291
390
316
452
500
208
25
382
457
444
42
424
255
195
331
328
154
126
297
537
174
31
113
530
173
272
321
57
278
24
17
307
66
473
286
490
275
462
464
94
180
414
92
23
287
492
268
5
116
45
248
333
388
16
48
354
422
3
468
431
60
196
544
536
110
377
311
29
520
225
514
26
7
181
50
108
229
37
157
237
531
118
423
114
541
203
175
432
301
194
437
67
535
168
281
521
193
152
442
507
421
289
103
336
74
364
534
119
332
352
501
471
304
296
348
453
324
36
139
253
335
59
111
312
305
262
426
150
266
451
38
371
198
355
146
463
147
362
469
123
436
96
143
239
323
97
549
293
415
122
183
202
246
360
481
416
353
467
334
125
356
223
495
219
129
497
374
398
447
341
420
346
294
434
400
361
112
179
363
399
496
314
151
425
233
306
367
164
317
136
197
538
258
232
115
120
412
224
529
396
347
127
547
285
512
487
107
438
384
133
429
44
169
65
283
85
242
186
508
159
12
35
28
170
142
470
402
221
498
95
51
240
440
351
449
178
477
41
513
546
206
392
282
358
397
254
488
4
256
522
100
226
523
213
499
171
98
292
215
61
406
47
32
417
267
327
200
134
27
460
230
260
378
288
418
162
391
502
138
62
135
128
540
8
326
344
64
300
14
156
40
379
187
526
216
409
279
52
527
337
236
207
212
295
525
251
548
461
455
554
303
350
269
483
445
201
161
43
217
401
190
476
309
259
105
53
389
1
517
359
49
419
80
205
34
430
263
427
454
443
366
91
339
345
241
13
315
387
273
166
551
484
542
504
243
189
475
510
58
474
252
21
313
459
160
276
191
385
413
491
343
308
130
99
372
87
458
330
214
466
121
20
