613
246
609
698
364
31
250
408
114
547
14
394
695
673
570
123
1
603
536
541
608
430
532
468
342
471
314
75
460
305
420
527
27
205
499
463
269
572
85
625
466
68
196
255
472
336
103
8
79
337
670
390
338
50
323
238
355
653
680
458
639
651
690
157
10
558
699
422
628
553
225
163
655
319
282
177
607
158
583
384
183
218
281
595
37
203
48
633
274
234
585
335
76
64
52
548
474
304
429
652
535
538
573
457
309
217
199
405
482
498
18
509
464
55
49
322
505
40
672
574
321
261
331
143
17
507
362
469
476
484
266
254
213
141
45
610
62
190
491
539
275
493
128
239
145
21
483
354
35
414
358
77
654
306
232
630
101
334
214
679
348
473
440
302
243
696
171
166
297
34
510
701
412
156
317
551
480
406
497
12
162
528
248
446
253
160
350
78
92
479
66
506
320
341
646
271
370
686
627
15
233
242
6
286
71
395
445
316
359
104
702
191
396
437
270
379
90
687
622
207
425
119
378
666
221
522
245
264
417
109
411
208
366
193
643
433
514
619
407
252
410
197
481
455
511
424
441
133
236
175
180
650
367
174
97
626
683
533
209
96
604
296
500
89
356
181
0
46
173
611
329
107
508
393
226
520
102
108
216
459
288
249
418
368
126
523
501
360
569
227
26
404
487
369
3
135
584
189
431
298
588
555
635
228
576
373
462
461
674
682
661
343
530
113
485
20
65
301
127
262
524
346
589
138
449
7
648
313
477
188
403
154
54
30
629
100
389
579
669
240
56
60
439
265
399
267
658
401
211
599
657
168
38
371
575
303
545
519
597
164
125
155
340
59
432
307
662
552
347
489
315
641
159
51
502
503
453
365
564
427
222
312
74
285
496
4
703
544
529
504
5
142
668
136
582
382
632
22
637
279
287
273
675
284
223
638
324
486
121
81
704
13
421
684
677
161
689
241
383
447
488
495
526
198
194
117
537
577
165
106
16
63
388
105
691
665
333
349
615
409
525
93
578
438
83
594
352
546
201
146
419
151
39
517
515
645
542
326
256
631
554
693
361
69
2
344
224
659
147
292
244
29
697
115
490
700
567
559
178
620
376
169
351
380
563
618
601
540
192
137
452
591
257
443
386
656
512
678
621
596
258
235
134
33
88
423
293
44
357
345
61
676
202
434
398
300
73
397
602
586
592
220
581
426
139
215
593
590
649
237
67
24
385
219
130
353
112
167
210
444
277
598
562
531
290
475
330
122
513
231
451
118
470
25
110
150
153
534
